time_s,Green
0.0,86464.0
0.001953125,86504.0
0.00390625,86510.0
0.005859375,86550.0
0.0078125,86548.0
0.009765625,86586.0
0.01171875,86616.0
0.013671875,86618.0
0.015625,86642.0
0.017578125,86668.0
0.01953125,86692.0
0.021484375,86702.0
0.0234375,86709.0
0.025390625,86734.0
0.02734375,86762.0
0.029296875,86753.0
0.03125,86770.0
0.033203125,86804.0
0.03515625,86795.0
0.037109375,86800.0
0.0390625,86842.0
0.041015625,86857.0
0.04296875,86857.0
0.044921875,86868.0
0.046875,86881.0
0.048828125,86895.0
0.05078125,86889.0
0.052734375,86908.0
0.0546875,86951.0
0.056640625,86924.0
0.05859375,86961.0
0.060546875,86941.0
0.0625,86971.0
0.064453125,86981.0
0.06640625,87000.0
0.068359375,87007.0
0.0703125,87036.0
0.072265625,87041.0
0.07421875,87038.0
0.076171875,87051.0
0.078125,87038.0
0.080078125,87076.0
0.08203125,87085.0
0.083984375,87105.0
0.0859375,87092.0
0.087890625,87110.0
0.08984375,87105.0
0.091796875,87122.0
0.09375,87126.0
0.095703125,87141.0
0.09765625,87156.0
0.099609375,87169.0
0.1015625,87168.0
0.103515625,87207.0
0.10546875,87209.0
0.107421875,87195.0
0.109375,87213.0
0.111328125,87252.0
0.11328125,87220.0
0.115234375,87231.0
0.1171875,87250.0
0.119140625,87270.0
0.12109375,87250.0
0.123046875,87275.0
0.125,87287.0
0.126953125,87301.0
0.12890625,87310.0
0.130859375,87325.0
0.1328125,87312.0
0.134765625,87353.0
0.13671875,87342.0
0.138671875,87366.0
0.140625,87369.0
0.142578125,87388.0
0.14453125,87383.0
0.146484375,87403.0
0.1484375,87391.0
0.150390625,87410.0
0.15234375,87419.0
0.154296875,87420.0
0.15625,87448.0
0.158203125,87471.0
0.16015625,87436.0
0.162109375,87440.0
0.1640625,87500.0
0.166015625,87501.0
0.16796875,87481.0
0.169921875,87517.0
0.171875,87514.0
0.173828125,87525.0
0.17578125,87535.0
0.177734375,87521.0
0.1796875,87535.0
0.181640625,87545.0
0.18359375,87581.0
0.185546875,87584.0
0.1875,87601.0
0.189453125,87579.0
0.19140625,87579.0
0.193359375,87602.0
0.1953125,87630.0
0.197265625,87612.0
0.19921875,87642.0
0.201171875,87636.0
0.203125,87648.0
0.205078125,87690.0
0.20703125,87665.0
0.208984375,87686.0
0.2109375,87701.0
0.212890625,87683.0
0.21484375,87721.0
0.216796875,87730.0
0.21875,87728.0
0.220703125,87717.0
0.22265625,87756.0
0.224609375,87750.0
0.2265625,87767.0
0.228515625,87772.0
0.23046875,87780.0
0.232421875,87791.0
0.234375,87761.0
0.236328125,87792.0
0.23828125,87787.0
0.240234375,87808.0
0.2421875,87810.0
0.244140625,87796.0
0.24609375,87823.0
0.248046875,87792.0
0.25,87778.0
0.251953125,87808.0
0.25390625,87776.0
0.255859375,87785.0
0.2578125,87769.0
0.259765625,87795.0
0.26171875,87803.0
0.263671875,87766.0
0.265625,87764.0
0.267578125,87753.0
0.26953125,87733.0
0.271484375,87730.0
0.2734375,87718.0
0.275390625,87697.0
0.27734375,87696.0
0.279296875,87702.0
0.28125,87654.0
0.283203125,87632.0
0.28515625,87642.0
0.287109375,87617.0
0.2890625,87576.0
0.291015625,87563.0
0.29296875,87550.0
0.294921875,87527.0
0.296875,87494.0
0.298828125,87510.0
0.30078125,87489.0
0.302734375,87430.0
0.3046875,87423.0
0.306640625,87395.0
0.30859375,87389.0
0.310546875,87373.0
0.3125,87345.0
0.314453125,87321.0
0.31640625,87304.0
0.318359375,87291.0
0.3203125,87256.0
0.322265625,87239.0
0.32421875,87242.0
0.326171875,87207.0
0.328125,87199.0
0.330078125,87157.0
0.33203125,87158.0
0.333984375,87121.0
0.3359375,87097.0
0.337890625,87079.0
0.33984375,87060.0
0.341796875,87042.0
0.34375,87019.0
0.345703125,87011.0
0.34765625,87004.0
0.349609375,86979.0
0.3515625,86967.0
0.353515625,86956.0
0.35546875,86937.0
0.357421875,86898.0
0.359375,86912.0
0.361328125,86901.0
0.36328125,86881.0
0.365234375,86886.0
0.3671875,86868.0
0.369140625,86843.0
0.37109375,86859.0
0.373046875,86820.0
0.375,86812.0
0.376953125,86820.0
0.37890625,86805.0
0.380859375,86788.0
0.3828125,86762.0
0.384765625,86781.0
0.38671875,86777.0
0.388671875,86746.0
0.390625,86778.0
0.392578125,86755.0
0.39453125,86723.0
0.396484375,86704.0
0.3984375,86734.0
0.400390625,86727.0
0.40234375,86714.0
0.404296875,86722.0
0.40625,86704.0
0.408203125,86709.0
0.41015625,86701.0
0.412109375,86695.0
0.4140625,86692.0
0.416015625,86680.0
0.41796875,86690.0
0.419921875,86677.0
0.421875,86651.0
0.423828125,86683.0
0.42578125,86650.0
0.427734375,86664.0
0.4296875,86652.0
0.431640625,86649.0
0.43359375,86635.0
0.435546875,86662.0
0.4375,86640.0
0.439453125,86627.0
0.44140625,86652.0
0.443359375,86656.0
0.4453125,86653.0
0.447265625,86659.0
0.44921875,86667.0
0.451171875,86652.0
0.453125,86659.0
0.455078125,86648.0
0.45703125,86645.0
0.458984375,86663.0
0.4609375,86648.0
0.462890625,86640.0
0.46484375,86671.0
0.466796875,86682.0
0.46875,86681.0
0.470703125,86694.0
0.47265625,86715.0
0.474609375,86697.0
0.4765625,86711.0
0.478515625,86708.0
0.48046875,86691.0
0.482421875,86722.0
0.484375,86722.0
0.486328125,86712.0
0.48828125,86745.0
0.490234375,86749.0
0.4921875,86756.0
0.494140625,86774.0
0.49609375,86767.0
0.498046875,86771.0
0.5,86783.0
0.501953125,86738.0
0.50390625,86777.0
0.505859375,86786.0
0.5078125,86797.0
0.509765625,86821.0
0.51171875,86815.0
0.513671875,86819.0
0.515625,86840.0
0.517578125,86825.0
0.51953125,86840.0
0.521484375,86860.0
0.5234375,86850.0
0.525390625,86859.0
0.52734375,86871.0
0.529296875,86881.0
0.53125,86874.0
0.533203125,86887.0
0.53515625,86919.0
0.537109375,86903.0
0.5390625,86915.0
0.541015625,86912.0
0.54296875,86918.0
0.544921875,86925.0
0.546875,86938.0
0.548828125,86939.0
0.55078125,86959.0
0.552734375,86958.0
0.5546875,86959.0
0.556640625,86951.0
0.55859375,86944.0
0.560546875,86971.0
0.5625,87001.0
0.564453125,86985.0
0.56640625,86996.0
0.568359375,87000.0
0.5703125,87005.0
0.572265625,87009.0
0.57421875,87012.0
0.576171875,86997.0
0.578125,87011.0
0.580078125,87021.0
0.58203125,87025.0
0.583984375,87051.0
0.5859375,87049.0
0.587890625,87065.0
0.58984375,87082.0
0.591796875,87086.0
0.59375,87064.0
0.595703125,87092.0
0.59765625,87075.0
0.599609375,87092.0
0.6015625,87102.0
0.603515625,87080.0
0.60546875,87123.0
0.607421875,87103.0
0.609375,87128.0
0.611328125,87135.0
0.61328125,87126.0
0.615234375,87128.0
0.6171875,87120.0
0.619140625,87151.0
0.62109375,87173.0
0.623046875,87165.0
0.625,87180.0
0.626953125,87176.0
0.62890625,87210.0
0.630859375,87207.0
0.6328125,87216.0
0.634765625,87219.0
0.63671875,87213.0
0.638671875,87204.0
0.640625,87234.0
0.642578125,87239.0
0.64453125,87221.0
0.646484375,87251.0
0.6484375,87213.0
0.650390625,87237.0
0.65234375,87254.0
0.654296875,87257.0
0.65625,87245.0
0.658203125,87259.0
0.66015625,87278.0
0.662109375,87287.0
0.6640625,87295.0
0.666015625,87295.0
0.66796875,87286.0
0.669921875,87326.0
0.671875,87321.0
0.673828125,87318.0
0.67578125,87311.0
0.677734375,87348.0
0.6796875,87363.0
0.681640625,87359.0
0.68359375,87392.0
0.685546875,87375.0
0.6875,87390.0
0.689453125,87389.0
0.69140625,87410.0
0.693359375,87420.0
0.6953125,87419.0
0.697265625,87404.0
0.69921875,87449.0
0.701171875,87445.0
0.703125,87462.0
0.705078125,87454.0
0.70703125,87494.0
0.708984375,87508.0
0.7109375,87520.0
0.712890625,87502.0
0.71484375,87524.0
0.716796875,87531.0
0.71875,87522.0
0.720703125,87533.0
0.72265625,87561.0
0.724609375,87576.0
0.7265625,87560.0
0.728515625,87571.0
0.73046875,87579.0
0.732421875,87606.0
0.734375,87619.0
0.736328125,87624.0
0.73828125,87625.0
0.740234375,87612.0
0.7421875,87632.0
0.744140625,87661.0
0.74609375,87675.0
0.748046875,87677.0
0.75,87700.0
0.751953125,87699.0
0.75390625,87697.0
0.755859375,87732.0
0.7578125,87733.0
0.759765625,87738.0
0.76171875,87729.0
0.763671875,87732.0
0.765625,87761.0
0.767578125,87782.0
0.76953125,87810.0
0.771484375,87794.0
0.7734375,87803.0
0.775390625,87826.0
0.77734375,87821.0
0.779296875,87832.0
0.78125,87841.0
0.783203125,87873.0
0.78515625,87859.0
0.787109375,87867.0
0.7890625,87892.0
0.791015625,87873.0
0.79296875,87915.0
0.794921875,87916.0
0.796875,87938.0
0.798828125,87941.0
0.80078125,87920.0
0.802734375,87963.0
0.8046875,87905.0
0.806640625,87941.0
0.80859375,87960.0
0.810546875,87966.0
0.8125,87976.0
0.814453125,87981.0
0.81640625,87988.0
0.818359375,87989.0
0.8203125,88005.0
0.822265625,88024.0
0.82421875,88025.0
0.826171875,88028.0
0.828125,88073.0
0.830078125,88065.0
0.83203125,88068.0
0.833984375,88080.0
0.8359375,88094.0
0.837890625,88112.0
0.83984375,88090.0
0.841796875,88098.0
0.84375,88117.0
0.845703125,88143.0
0.84765625,88133.0
0.849609375,88164.0
0.8515625,88169.0
0.853515625,88176.0
0.85546875,88199.0
0.857421875,88196.0
0.859375,88211.0
0.861328125,88198.0
0.86328125,88214.0
0.865234375,88230.0
0.8671875,88251.0
0.869140625,88260.0
0.87109375,88253.0
0.873046875,88262.0
0.875,88275.0
0.876953125,88280.0
0.87890625,88303.0
0.880859375,88310.0
0.8828125,88307.0
0.884765625,88318.0
0.88671875,88328.0
0.888671875,88336.0
0.890625,88367.0
0.892578125,88359.0
0.89453125,88380.0
0.896484375,88395.0
0.8984375,88380.0
0.900390625,88425.0
0.90234375,88406.0
0.904296875,88425.0
0.90625,88428.0
0.908203125,88465.0
0.91015625,88463.0
0.912109375,88462.0
0.9140625,88446.0
0.916015625,88501.0
0.91796875,88472.0
0.919921875,88467.0
0.921875,88493.0
0.923828125,88492.0
0.92578125,88514.0
0.927734375,88531.0
0.9296875,88552.0
0.931640625,88559.0
0.93359375,88567.0
0.935546875,88575.0
0.9375,88599.0
0.939453125,88572.0
0.94140625,88595.0
0.943359375,88598.0
0.9453125,88615.0
0.947265625,88631.0
0.94921875,88625.0
0.951171875,88649.0
0.953125,88650.0
0.955078125,88653.0
0.95703125,88659.0
0.958984375,88669.0
0.9609375,88661.0
0.962890625,88671.0
0.96484375,88686.0
0.966796875,88697.0
0.96875,88714.0
0.970703125,88713.0
0.97265625,88742.0
0.974609375,88716.0
0.9765625,88731.0
0.978515625,88723.0
0.98046875,88722.0
0.982421875,88760.0
0.984375,88735.0
0.986328125,88735.0
0.98828125,88776.0
0.990234375,88795.0
0.9921875,88785.0
0.994140625,88775.0
0.99609375,88811.0
0.998046875,88786.0
1.0,88783.0
1.001953125,88801.0
1.00390625,88814.0
1.005859375,88825.0
1.0078125,88841.0
1.009765625,88795.0
1.01171875,88811.0
1.013671875,88827.0
1.015625,88800.0
1.017578125,88833.0
1.01953125,88822.0
1.021484375,88806.0
1.0234375,88783.0
1.025390625,88809.0
1.02734375,88812.0
1.029296875,88781.0
1.03125,88782.0
1.033203125,88799.0
1.03515625,88787.0
1.037109375,88777.0
1.0390625,88745.0
1.041015625,88744.0
1.04296875,88751.0
1.044921875,88702.0
1.046875,88696.0
1.048828125,88667.0
1.05078125,88698.0
1.052734375,88665.0
1.0546875,88643.0
1.056640625,88633.0
1.05859375,88605.0
1.060546875,88570.0
1.0625,88578.0
1.064453125,88561.0
1.06640625,88529.0
1.068359375,88537.0
1.0703125,88490.0
1.072265625,88493.0
1.07421875,88468.0
1.076171875,88447.0
1.078125,88421.0
1.080078125,88417.0
1.08203125,88398.0
1.083984375,88401.0
1.0859375,88367.0
1.087890625,88340.0
1.08984375,88346.0
1.091796875,88330.0
1.09375,88324.0
1.095703125,88307.0
1.09765625,88285.0
1.099609375,88264.0
1.1015625,88274.0
1.103515625,88262.0
1.10546875,88253.0
1.107421875,88216.0
1.109375,88219.0
1.111328125,88211.0
1.11328125,88216.0
1.115234375,88232.0
1.1171875,88207.0
1.119140625,88191.0
1.12109375,88194.0
1.123046875,88159.0
1.125,88156.0
1.126953125,88158.0
1.12890625,88162.0
1.130859375,88153.0
1.1328125,88132.0
1.134765625,88158.0
1.13671875,88143.0
1.138671875,88128.0
1.140625,88160.0
1.142578125,88151.0
1.14453125,88129.0
1.146484375,88125.0
1.1484375,88129.0
1.150390625,88103.0
1.15234375,88130.0
1.154296875,88117.0
1.15625,88119.0
1.158203125,88105.0
1.16015625,88103.0
1.162109375,88091.0
1.1640625,88126.0
1.166015625,88108.0
1.16796875,88094.0
1.169921875,88077.0
1.171875,88082.0
1.173828125,88099.0
1.17578125,88080.0
1.177734375,88086.0
1.1796875,88065.0
1.181640625,88076.0
1.18359375,88058.0
1.185546875,88078.0
1.1875,88073.0
1.189453125,88068.0
1.19140625,88073.0
1.193359375,88095.0
1.1953125,88083.0
1.197265625,88071.0
1.19921875,88067.0
1.201171875,88060.0
1.203125,88056.0
1.205078125,88079.0
1.20703125,88090.0
1.208984375,88072.0
1.2109375,88074.0
1.212890625,88064.0
1.21484375,88075.0
1.216796875,88079.0
1.21875,88094.0
1.220703125,88057.0
1.22265625,88068.0
1.224609375,88072.0
1.2265625,88080.0
1.228515625,88083.0
1.23046875,88086.0
1.232421875,88075.0
1.234375,88078.0
1.236328125,88097.0
1.23828125,88112.0
1.240234375,88095.0
1.2421875,88109.0
1.244140625,88135.0
1.24609375,88161.0
1.248046875,88149.0
1.25,88162.0
1.251953125,88155.0
1.25390625,88158.0
1.255859375,88189.0
1.2578125,88185.0
1.259765625,88188.0
1.26171875,88217.0
1.263671875,88205.0
1.265625,88237.0
1.267578125,88220.0
1.26953125,88206.0
1.271484375,88247.0
1.2734375,88254.0
1.275390625,88242.0
1.27734375,88231.0
1.279296875,88262.0
1.28125,88281.0
1.283203125,88261.0
1.28515625,88292.0
1.287109375,88296.0
1.2890625,88274.0
1.291015625,88263.0
1.29296875,88292.0
1.294921875,88324.0
1.296875,88331.0
1.298828125,88332.0
1.30078125,88304.0
1.302734375,88320.0
1.3046875,88349.0
1.306640625,88325.0
1.30859375,88344.0
1.310546875,88367.0
1.3125,88351.0
1.314453125,88371.0
1.31640625,88343.0
1.318359375,88366.0
1.3203125,88371.0
1.322265625,88369.0
1.32421875,88381.0
1.326171875,88383.0
1.328125,88403.0
1.330078125,88376.0
1.33203125,88408.0
1.333984375,88417.0
1.3359375,88389.0
1.337890625,88430.0
1.33984375,88413.0
1.341796875,88400.0
1.34375,88435.0
1.345703125,88427.0
1.34765625,88406.0
1.349609375,88429.0
1.3515625,88459.0
1.353515625,88447.0
1.35546875,88463.0
1.357421875,88448.0
1.359375,88470.0
1.361328125,88469.0
1.36328125,88484.0
1.365234375,88485.0
1.3671875,88488.0
1.369140625,88510.0
1.37109375,88507.0
1.373046875,88503.0
1.375,88502.0
1.376953125,88530.0
1.37890625,88545.0
1.380859375,88530.0
1.3828125,88544.0
1.384765625,88501.0
1.38671875,88545.0
1.388671875,88552.0
1.390625,88561.0
1.392578125,88574.0
1.39453125,88572.0
1.396484375,88575.0
1.3984375,88577.0
1.400390625,88606.0
1.40234375,88590.0
1.404296875,88595.0
1.40625,88612.0
1.408203125,88630.0
1.41015625,88620.0
1.412109375,88623.0
1.4140625,88648.0
1.416015625,88646.0
1.41796875,88655.0
1.419921875,88659.0
1.421875,88665.0
1.423828125,88650.0
1.42578125,88691.0
1.427734375,88690.0
1.4296875,88700.0
1.431640625,88699.0
1.43359375,88700.0
1.435546875,88701.0
1.4375,88722.0
1.439453125,88708.0
1.44140625,88698.0
1.443359375,88734.0
1.4453125,88706.0
1.447265625,88709.0
1.44921875,88737.0
1.451171875,88759.0
1.453125,88768.0
1.455078125,88756.0
1.45703125,88766.0
1.458984375,88775.0
1.4609375,88737.0
1.462890625,88761.0
1.46484375,88781.0
1.466796875,88774.0
1.46875,88830.0
1.470703125,88819.0
1.47265625,88814.0
1.474609375,88827.0
1.4765625,88809.0
1.478515625,88844.0
1.48046875,88843.0
1.482421875,88869.0
1.484375,88839.0
1.486328125,88868.0
1.48828125,88849.0
1.490234375,88901.0
1.4921875,88890.0
1.494140625,88905.0
1.49609375,88921.0
1.498046875,88917.0
1.5,88917.0
1.501953125,88941.0
1.50390625,88905.0
1.505859375,88908.0
1.5078125,88928.0
1.509765625,88963.0
1.51171875,88957.0
1.513671875,88960.0
1.515625,88990.0
1.517578125,88973.0
1.51953125,88989.0
1.521484375,88983.0
1.5234375,88975.0
1.525390625,89014.0
1.52734375,88977.0
1.529296875,89010.0
1.53125,89026.0
1.533203125,89008.0
1.53515625,89038.0
1.537109375,89049.0
1.5390625,89030.0
1.541015625,89050.0
1.54296875,89071.0
1.544921875,89055.0
1.546875,89065.0
1.548828125,89108.0
1.55078125,89097.0
1.552734375,89113.0
1.5546875,89122.0
1.556640625,89121.0
1.55859375,89132.0
1.560546875,89134.0
1.5625,89120.0
1.564453125,89146.0
1.56640625,89162.0
1.568359375,89180.0
1.5703125,89178.0
1.572265625,89162.0
1.57421875,89178.0
1.576171875,89192.0
1.578125,89203.0
1.580078125,89197.0
1.58203125,89199.0
1.583984375,89223.0
1.5859375,89219.0
1.587890625,89228.0
1.58984375,89232.0
1.591796875,89236.0
1.59375,89242.0
1.595703125,89269.0
1.59765625,89266.0
1.599609375,89283.0
1.6015625,89284.0
1.603515625,89260.0
1.60546875,89285.0
1.607421875,89312.0
1.609375,89325.0
1.611328125,89323.0
1.61328125,89327.0
1.615234375,89325.0
1.6171875,89346.0
1.619140625,89370.0
1.62109375,89372.0
1.623046875,89360.0
1.625,89361.0
1.626953125,89379.0
1.62890625,89374.0
1.630859375,89390.0
1.6328125,89380.0
1.634765625,89384.0
1.63671875,89389.0
1.638671875,89421.0
1.640625,89430.0
1.642578125,89412.0
1.64453125,89414.0
1.646484375,89413.0
1.6484375,89422.0
1.650390625,89427.0
1.65234375,89466.0
1.654296875,89461.0
1.65625,89453.0
1.658203125,89465.0
1.66015625,89464.0
1.662109375,89457.0
1.6640625,89470.0
1.666015625,89475.0
1.66796875,89489.0
1.669921875,89455.0
1.671875,89518.0
1.673828125,89508.0
1.67578125,89528.0
1.677734375,89498.0
1.6796875,89527.0
1.681640625,89527.0
1.68359375,89517.0
1.685546875,89547.0
1.6875,89528.0
1.689453125,89561.0
1.69140625,89543.0
1.693359375,89546.0
1.6953125,89555.0
1.697265625,89581.0
1.69921875,89566.0
1.701171875,89576.0
1.703125,89566.0
1.705078125,89576.0
1.70703125,89577.0
1.708984375,89565.0
1.7109375,89618.0
1.712890625,89591.0
1.71484375,89596.0
1.716796875,89615.0
1.71875,89625.0
1.720703125,89602.0
1.72265625,89604.0
1.724609375,89589.0
1.7265625,89622.0
1.728515625,89598.0
1.73046875,89605.0
1.732421875,89599.0
1.734375,89616.0
1.736328125,89600.0
1.73828125,89611.0
1.740234375,89593.0
1.7421875,89599.0
1.744140625,89582.0
1.74609375,89565.0
1.748046875,89585.0
1.75,89588.0
1.751953125,89540.0
1.75390625,89561.0
1.755859375,89524.0
1.7578125,89529.0
1.759765625,89525.0
1.76171875,89494.0
1.763671875,89498.0
1.765625,89467.0
1.767578125,89445.0
1.76953125,89443.0
1.771484375,89421.0
1.7734375,89412.0
1.775390625,89399.0
1.77734375,89396.0
1.779296875,89389.0
1.78125,89365.0
1.783203125,89312.0
1.78515625,89333.0
1.787109375,89296.0
1.7890625,89261.0
1.791015625,89259.0
1.79296875,89252.0
1.794921875,89233.0
1.796875,89188.0
1.798828125,89228.0
1.80078125,89171.0
1.802734375,89152.0
1.8046875,89151.0
1.806640625,89162.0
1.80859375,89119.0
1.810546875,89118.0
1.8125,89092.0
1.814453125,89080.0
1.81640625,89070.0
1.818359375,89052.0
1.8203125,89083.0
1.822265625,89016.0
1.82421875,88995.0
1.826171875,89011.0
1.828125,88987.0
1.830078125,88981.0
1.83203125,88957.0
1.833984375,88956.0
1.8359375,88941.0
1.837890625,88943.0
1.83984375,88948.0
1.841796875,88917.0
1.84375,88933.0
1.845703125,88902.0
1.84765625,88913.0
1.849609375,88909.0
1.8515625,88937.0
1.853515625,88854.0
1.85546875,88898.0
1.857421875,88913.0
1.859375,88877.0
1.861328125,88869.0
1.86328125,88882.0
1.865234375,88872.0
1.8671875,88857.0
1.869140625,88854.0
1.87109375,88851.0
1.873046875,88877.0
1.875,88862.0
1.876953125,88858.0
1.87890625,88848.0
1.880859375,88850.0
1.8828125,88836.0
1.884765625,88811.0
1.88671875,88827.0
1.888671875,88789.0
1.890625,88820.0
1.892578125,88826.0
1.89453125,88824.0
1.896484375,88827.0
1.8984375,88826.0
1.900390625,88805.0
1.90234375,88807.0
1.904296875,88802.0
1.90625,88790.0
1.908203125,88789.0
1.91015625,88826.0
1.912109375,88796.0
1.9140625,88785.0
1.916015625,88794.0
1.91796875,88789.0
1.919921875,88806.0
1.921875,88793.0
1.923828125,88792.0
1.92578125,88787.0
1.927734375,88820.0
1.9296875,88824.0
1.931640625,88830.0
1.93359375,88826.0
1.935546875,88848.0
1.9375,88832.0
1.939453125,88852.0
1.94140625,88856.0
1.943359375,88836.0
1.9453125,88844.0
1.947265625,88852.0
1.94921875,88873.0
1.951171875,88861.0
1.953125,88872.0
1.955078125,88887.0
1.95703125,88886.0
1.958984375,88910.0
1.9609375,88898.0
1.962890625,88904.0
1.96484375,88908.0
1.966796875,88917.0
1.96875,88934.0
1.970703125,88951.0
1.97265625,88946.0
1.974609375,88944.0
1.9765625,88965.0
1.978515625,88974.0
1.98046875,88967.0
1.982421875,88943.0
1.984375,88926.0
1.986328125,88924.0
1.98828125,88975.0
1.990234375,88953.0
1.9921875,88968.0
1.994140625,88976.0
1.99609375,88971.0
1.998046875,88992.0
2.0,88978.0
2.001953125,89009.0
2.00390625,88984.0
2.005859375,89003.0
2.0078125,89033.0
2.009765625,89027.0
2.01171875,89030.0
2.013671875,89049.0
2.015625,89042.0
2.017578125,89033.0
2.01953125,89036.0
2.021484375,89031.0
2.0234375,89028.0
2.025390625,89051.0
2.02734375,89044.0
2.029296875,89041.0
2.03125,89064.0
2.033203125,89037.0
2.03515625,89059.0
2.037109375,89047.0
2.0390625,89053.0
2.041015625,89067.0
2.04296875,89053.0
2.044921875,89067.0
2.046875,89045.0
2.048828125,89035.0
2.05078125,89047.0
2.052734375,89050.0
2.0546875,89053.0
2.056640625,89056.0
2.05859375,89087.0
2.060546875,89068.0
2.0625,89078.0
2.064453125,89067.0
2.06640625,89068.0
2.068359375,89088.0
2.0703125,89093.0
2.072265625,89096.0
2.07421875,89088.0
2.076171875,89123.0
2.078125,89117.0
2.080078125,89126.0
2.08203125,89111.0
2.083984375,89126.0
2.0859375,89111.0
2.087890625,89108.0
2.08984375,89127.0
2.091796875,89129.0
2.09375,89098.0
2.095703125,89119.0
2.09765625,89134.0
2.099609375,89128.0
2.1015625,89131.0
2.103515625,89112.0
2.10546875,89134.0
2.107421875,89139.0
2.109375,89157.0
2.111328125,89148.0
2.11328125,89155.0
2.115234375,89146.0
2.1171875,89152.0
2.119140625,89182.0
2.12109375,89198.0
2.123046875,89127.0
2.125,89198.0
2.126953125,89195.0
2.12890625,89190.0
2.130859375,89197.0
2.1328125,89169.0
2.134765625,89220.0
2.13671875,89200.0
2.138671875,89227.0
2.140625,89230.0
2.142578125,89222.0
2.14453125,89237.0
2.146484375,89227.0
2.1484375,89238.0
2.150390625,89228.0
2.15234375,89244.0
2.154296875,89249.0
2.15625,89252.0
2.158203125,89260.0
2.16015625,89271.0
2.162109375,89287.0
2.1640625,89258.0
2.166015625,89263.0
2.16796875,89283.0
2.169921875,89334.0
2.171875,89304.0
2.173828125,89334.0
2.17578125,89293.0
2.177734375,89339.0
2.1796875,89340.0
2.181640625,89334.0
2.18359375,89343.0
2.185546875,89355.0
2.1875,89339.0
2.189453125,89367.0
2.19140625,89377.0
2.193359375,89406.0
2.1953125,89377.0
2.197265625,89391.0
2.19921875,89402.0
2.201171875,89404.0
2.203125,89409.0
2.205078125,89416.0
2.20703125,89397.0
2.208984375,89432.0
2.2109375,89432.0
2.212890625,89432.0
2.21484375,89458.0
2.216796875,89446.0
2.21875,89464.0
2.220703125,89456.0
2.22265625,89486.0
2.224609375,89480.0
2.2265625,89479.0
2.228515625,89461.0
2.23046875,89493.0
2.232421875,89504.0
2.234375,89484.0
2.236328125,89508.0
2.23828125,89532.0
2.240234375,89535.0
2.2421875,89532.0
2.244140625,89559.0
2.24609375,89551.0
2.248046875,89553.0
2.25,89530.0
2.251953125,89546.0
2.25390625,89556.0
2.255859375,89550.0
2.2578125,89585.0
2.259765625,89585.0
2.26171875,89571.0
2.263671875,89592.0
2.265625,89585.0
2.267578125,89612.0
2.26953125,89598.0
2.271484375,89601.0
2.2734375,89623.0
2.275390625,89625.0
2.27734375,89615.0
2.279296875,89625.0
2.28125,89627.0
2.283203125,89649.0
2.28515625,89643.0
2.287109375,89647.0
2.2890625,89682.0
2.291015625,89661.0
2.29296875,89691.0
2.294921875,89657.0
2.296875,89677.0
2.298828125,89679.0
2.30078125,89684.0
2.302734375,89663.0
2.3046875,89672.0
2.306640625,89672.0
2.30859375,89695.0
2.310546875,89695.0
2.3125,89706.0
2.314453125,89710.0
2.31640625,89720.0
2.318359375,89730.0
2.3203125,89740.0
2.322265625,89743.0
2.32421875,89736.0
2.326171875,89735.0
2.328125,89735.0
2.330078125,89741.0
2.33203125,89775.0
2.333984375,89757.0
2.3359375,89754.0
2.337890625,89783.0
2.33984375,89799.0
2.341796875,89804.0
2.34375,89799.0
2.345703125,89786.0
2.34765625,89782.0
2.349609375,89814.0
2.3515625,89824.0
2.353515625,89806.0
2.35546875,89832.0
2.357421875,89824.0
2.359375,89836.0
2.361328125,89834.0
2.36328125,89843.0
2.365234375,89833.0
2.3671875,89827.0
2.369140625,89852.0
2.37109375,89849.0
2.373046875,89837.0
2.375,89847.0
2.376953125,89874.0
2.37890625,89882.0
2.380859375,89875.0
2.3828125,89873.0
2.384765625,89852.0
2.38671875,89880.0
2.388671875,89858.0
2.390625,89884.0
2.392578125,89883.0
2.39453125,89897.0
2.396484375,89877.0
2.3984375,89889.0
2.400390625,89893.0
2.40234375,89885.0
2.404296875,89861.0
2.40625,89844.0
2.408203125,89886.0
2.41015625,89871.0
2.412109375,89860.0
2.4140625,89857.0
2.416015625,89857.0
2.41796875,89868.0
2.419921875,89833.0
2.421875,89825.0
2.423828125,89790.0
2.42578125,89818.0
2.427734375,89775.0
2.4296875,89791.0
2.431640625,89770.0
2.43359375,89741.0
2.435546875,89745.0
2.4375,89721.0
2.439453125,89732.0
2.44140625,89699.0
2.443359375,89684.0
2.4453125,89667.0
2.447265625,89633.0
2.44921875,89622.0
2.451171875,89611.0
2.453125,89590.0
2.455078125,89557.0
2.45703125,89518.0
2.458984375,89527.0
2.4609375,89499.0
2.462890625,89491.0
2.46484375,89457.0
2.466796875,89433.0
2.46875,89413.0
2.470703125,89389.0
2.47265625,89358.0
2.474609375,89366.0
2.4765625,89319.0
2.478515625,89322.0
2.48046875,89310.0
2.482421875,89289.0
2.484375,89268.0
2.486328125,89255.0
2.48828125,89237.0
2.490234375,89201.0
2.4921875,89210.0
2.494140625,89188.0
2.49609375,89130.0
2.498046875,89127.0
2.5,89132.0
2.501953125,89128.0
2.50390625,89131.0
2.505859375,89097.0
2.5078125,89105.0
2.509765625,89057.0
2.51171875,89059.0
2.513671875,89046.0
2.515625,89002.0
2.517578125,89024.0
2.51953125,89031.0
2.521484375,88997.0
2.5234375,88986.0
2.525390625,88986.0
2.52734375,88977.0
2.529296875,88949.0
2.53125,88968.0
2.533203125,88964.0
2.53515625,88963.0
2.537109375,88933.0
2.5390625,88927.0
2.541015625,88909.0
2.54296875,88919.0
2.544921875,88893.0
2.546875,88883.0
2.548828125,88874.0
2.55078125,88852.0
2.552734375,88870.0
2.5546875,88847.0
2.556640625,88841.0
2.55859375,88835.0
2.560546875,88852.0
2.5625,88840.0
2.564453125,88827.0
2.56640625,88807.0
2.568359375,88783.0
2.5703125,88802.0
2.572265625,88799.0
2.57421875,88775.0
2.576171875,88783.0
2.578125,88758.0
2.580078125,88764.0
2.58203125,88779.0
2.583984375,88760.0
2.5859375,88753.0
2.587890625,88745.0
2.58984375,88734.0
2.591796875,88749.0
2.59375,88730.0
2.595703125,88714.0
2.59765625,88738.0
2.599609375,88719.0
2.6015625,88719.0
2.603515625,88727.0
2.60546875,88707.0
2.607421875,88699.0
2.609375,88719.0
2.611328125,88697.0
2.61328125,88719.0
2.615234375,88709.0
2.6171875,88707.0
2.619140625,88698.0
2.62109375,88723.0
2.623046875,88727.0
2.625,88712.0
2.626953125,88725.0
2.62890625,88697.0
2.630859375,88706.0
2.6328125,88723.0
2.634765625,88730.0
2.63671875,88706.0
2.638671875,88762.0
2.640625,88742.0
2.642578125,88744.0
2.64453125,88761.0
2.646484375,88739.0
2.6484375,88752.0
2.650390625,88766.0
2.65234375,88744.0
2.654296875,88790.0
2.65625,88777.0
2.658203125,88758.0
2.66015625,88768.0
2.662109375,88766.0
2.6640625,88772.0
2.666015625,88779.0
2.66796875,88787.0
2.669921875,88822.0
2.671875,88795.0
2.673828125,88847.0
2.67578125,88810.0
2.677734375,88840.0
2.6796875,88842.0
2.681640625,88832.0
2.68359375,88841.0
2.685546875,88825.0
2.6875,88844.0
2.689453125,88838.0
2.69140625,88867.0
2.693359375,88867.0
2.6953125,88854.0
2.697265625,88880.0
2.69921875,88874.0
2.701171875,88860.0
2.703125,88854.0
2.705078125,88881.0
2.70703125,88864.0
2.708984375,88863.0
2.7109375,88852.0
2.712890625,88880.0
2.71484375,88877.0
2.716796875,88871.0
2.71875,88875.0
2.720703125,88865.0
2.72265625,88890.0
2.724609375,88856.0
2.7265625,88871.0
2.728515625,88867.0
2.73046875,88840.0
2.732421875,88851.0
2.734375,88888.0
2.736328125,88867.0
2.73828125,88868.0
2.740234375,88878.0
2.7421875,88886.0
2.744140625,88888.0
2.74609375,88909.0
2.748046875,88886.0
2.75,88882.0
2.751953125,88876.0
2.75390625,88880.0
2.755859375,88872.0
2.7578125,88901.0
2.759765625,88901.0
2.76171875,88894.0
2.763671875,88920.0
2.765625,88907.0
2.767578125,88886.0
2.76953125,88889.0
2.771484375,88913.0
2.7734375,88892.0
2.775390625,88921.0
2.77734375,88932.0
2.779296875,88920.0
2.78125,88955.0
2.783203125,88934.0
2.78515625,88936.0
2.787109375,88917.0
2.7890625,88933.0
2.791015625,88949.0
2.79296875,88933.0
2.794921875,88939.0
2.796875,88950.0
2.798828125,88944.0
2.80078125,88954.0
2.802734375,88973.0
2.8046875,88985.0
2.806640625,88961.0
2.80859375,88961.0
2.810546875,88982.0
2.8125,88955.0
2.814453125,88971.0
2.81640625,88987.0
2.818359375,89019.0
2.8203125,89002.0
2.822265625,89015.0
2.82421875,89022.0
2.826171875,89005.0
2.828125,89014.0
2.830078125,89022.0
2.83203125,89001.0
2.833984375,89026.0
2.8359375,89057.0
2.837890625,89044.0
2.83984375,89051.0
2.841796875,89066.0
2.84375,89075.0
2.845703125,89064.0
2.84765625,89073.0
2.849609375,89090.0
2.8515625,89074.0
2.853515625,89077.0
2.85546875,89080.0
2.857421875,89100.0
2.859375,89120.0
2.861328125,89112.0
2.86328125,89130.0
2.865234375,89122.0
2.8671875,89126.0
2.869140625,89132.0
2.87109375,89145.0
2.873046875,89157.0
2.875,89163.0
2.876953125,89161.0
2.87890625,89141.0
2.880859375,89167.0
2.8828125,89182.0
2.884765625,89172.0
2.88671875,89184.0
2.888671875,89187.0
2.890625,89164.0
2.892578125,89213.0
2.89453125,89196.0
2.896484375,89189.0
2.8984375,89203.0
2.900390625,89208.0
2.90234375,89226.0
2.904296875,89219.0
2.90625,89243.0
2.908203125,89215.0
2.91015625,89231.0
2.912109375,89254.0
2.9140625,89277.0
2.916015625,89250.0
2.91796875,89253.0
2.919921875,89268.0
2.921875,89265.0
2.923828125,89284.0
2.92578125,89286.0
2.927734375,89286.0
2.9296875,89293.0
2.931640625,89290.0
2.93359375,89312.0
2.935546875,89304.0
2.9375,89314.0
2.939453125,89324.0
2.94140625,89320.0
2.943359375,89310.0
2.9453125,89359.0
2.947265625,89358.0
2.94921875,89349.0
2.951171875,89333.0
2.953125,89358.0
2.955078125,89358.0
2.95703125,89346.0
2.958984375,89376.0
2.9609375,89357.0
2.962890625,89366.0
2.96484375,89378.0
2.966796875,89383.0
2.96875,89388.0
2.970703125,89407.0
2.97265625,89404.0
2.974609375,89387.0
2.9765625,89398.0
2.978515625,89430.0
2.98046875,89414.0
2.982421875,89415.0
2.984375,89423.0
2.986328125,89448.0
2.98828125,89433.0
2.990234375,89395.0
2.9921875,89417.0
2.994140625,89432.0
2.99609375,89450.0
2.998046875,89464.0
3.0,89436.0
3.001953125,89453.0
3.00390625,89464.0
3.005859375,89461.0
3.0078125,89471.0
3.009765625,89487.0
3.01171875,89473.0
3.013671875,89507.0
3.015625,89483.0
3.017578125,89496.0
3.01953125,89513.0
3.021484375,89521.0
3.0234375,89532.0
3.025390625,89533.0
3.02734375,89511.0
3.029296875,89527.0
3.03125,89517.0
3.033203125,89527.0
3.03515625,89504.0
3.037109375,89553.0
3.0390625,89546.0
3.041015625,89565.0
3.04296875,89556.0
3.044921875,89557.0
3.046875,89578.0
3.048828125,89555.0
3.05078125,89607.0
3.052734375,89588.0
3.0546875,89578.0
3.056640625,89590.0
3.05859375,89585.0
3.060546875,89563.0
3.0625,89596.0
3.064453125,89602.0
3.06640625,89590.0
3.068359375,89592.0
3.0703125,89606.0
3.072265625,89588.0
3.07421875,89585.0
3.076171875,89601.0
3.078125,89624.0
3.080078125,89642.0
3.08203125,89621.0
3.083984375,89632.0
3.0859375,89639.0
3.087890625,89633.0
3.08984375,89611.0
3.091796875,89595.0
3.09375,89619.0
3.095703125,89618.0
3.09765625,89603.0
3.099609375,89595.0
3.1015625,89595.0
3.103515625,89599.0
3.10546875,89619.0
3.107421875,89586.0
3.109375,89584.0
3.111328125,89562.0
3.11328125,89547.0
3.115234375,89570.0
3.1171875,89534.0
3.119140625,89525.0
3.12109375,89505.0
3.123046875,89481.0
3.125,89488.0
3.126953125,89458.0
3.12890625,89441.0
3.130859375,89415.0
3.1328125,89394.0
3.134765625,89367.0
3.13671875,89329.0
3.138671875,89316.0
3.140625,89308.0
3.142578125,89273.0
3.14453125,89269.0
3.146484375,89241.0
3.1484375,89225.0
3.150390625,89144.0
3.15234375,89156.0
3.154296875,89120.0
3.15625,89117.0
3.158203125,89076.0
3.16015625,89053.0
3.162109375,89044.0
3.1640625,89026.0
3.166015625,88990.0
3.16796875,88973.0
3.169921875,88922.0
3.171875,88927.0
3.173828125,88888.0
3.17578125,88879.0
3.177734375,88877.0
3.1796875,88845.0
3.181640625,88819.0
3.18359375,88810.0
3.185546875,88803.0
3.1875,88774.0
3.189453125,88739.0
3.19140625,88706.0
3.193359375,88697.0
3.1953125,88693.0
3.197265625,88646.0
3.19921875,88650.0
3.201171875,88650.0
3.203125,88632.0
3.205078125,88582.0
3.20703125,88593.0
3.208984375,88577.0
3.2109375,88552.0
3.212890625,88546.0
3.21484375,88514.0
3.216796875,88502.0
3.21875,88502.0
3.220703125,88512.0
3.22265625,88487.0
3.224609375,88488.0
3.2265625,88443.0
3.228515625,88433.0
3.23046875,88436.0
3.232421875,88407.0
3.234375,88410.0
3.236328125,88401.0
3.23828125,88392.0
3.240234375,88388.0
3.2421875,88383.0
3.244140625,88370.0
3.24609375,88344.0
3.248046875,88364.0
3.25,88315.0
3.251953125,88342.0
3.25390625,88327.0
3.255859375,88291.0
3.2578125,88317.0
3.259765625,88285.0
3.26171875,88277.0
3.263671875,88291.0
3.265625,88283.0
3.267578125,88288.0
3.26953125,88257.0
3.271484375,88249.0
3.2734375,88239.0
3.275390625,88241.0
3.27734375,88238.0
3.279296875,88244.0
3.28125,88210.0
3.283203125,88220.0
3.28515625,88208.0
3.287109375,88194.0
3.2890625,88213.0
3.291015625,88211.0
3.29296875,88197.0
3.294921875,88189.0
3.296875,88173.0
3.298828125,88182.0
3.30078125,88180.0
3.302734375,88180.0
3.3046875,88193.0
3.306640625,88182.0
3.30859375,88157.0
3.310546875,88185.0
3.3125,88161.0
3.314453125,88164.0
3.31640625,88172.0
3.318359375,88149.0
3.3203125,88168.0
3.322265625,88168.0
3.32421875,88170.0
3.326171875,88178.0
3.328125,88175.0
3.330078125,88167.0
3.33203125,88174.0
3.333984375,88202.0
3.3359375,88203.0
3.337890625,88184.0
3.33984375,88200.0
3.341796875,88194.0
3.34375,88199.0
3.345703125,88219.0
3.34765625,88236.0
3.349609375,88210.0
3.3515625,88228.0
3.353515625,88204.0
3.35546875,88207.0
3.357421875,88226.0
3.359375,88241.0
3.361328125,88241.0
3.36328125,88246.0
3.365234375,88279.0
3.3671875,88248.0
3.369140625,88263.0
3.37109375,88246.0
3.373046875,88255.0
3.375,88245.0
3.376953125,88262.0
3.37890625,88299.0
3.380859375,88267.0
3.3828125,88276.0
3.384765625,88275.0
3.38671875,88282.0
3.388671875,88287.0
3.390625,88277.0
3.392578125,88267.0
3.39453125,88256.0
3.396484375,88299.0
3.3984375,88292.0
3.400390625,88289.0
3.40234375,88295.0
3.404296875,88292.0
3.40625,88280.0
3.408203125,88310.0
3.41015625,88314.0
3.412109375,88307.0
3.4140625,88288.0
3.416015625,88307.0
3.41796875,88314.0
3.419921875,88294.0
3.421875,88311.0
3.423828125,88324.0
3.42578125,88311.0
3.427734375,88308.0
3.4296875,88313.0
3.431640625,88327.0
3.43359375,88305.0
3.435546875,88299.0
3.4375,88312.0
3.439453125,88347.0
3.44140625,88336.0
3.443359375,88330.0
3.4453125,88315.0
3.447265625,88332.0
3.44921875,88324.0
3.451171875,88334.0
3.453125,88326.0
3.455078125,88349.0
3.45703125,88349.0
3.458984375,88366.0
3.4609375,88346.0
3.462890625,88357.0
3.46484375,88348.0
3.466796875,88372.0
3.46875,88369.0
3.470703125,88373.0
3.47265625,88392.0
3.474609375,88376.0
3.4765625,88354.0
3.478515625,88388.0
3.48046875,88377.0
3.482421875,88373.0
3.484375,88390.0
3.486328125,88402.0
3.48828125,88394.0
3.490234375,88395.0
3.4921875,88373.0
3.494140625,88386.0
3.49609375,88415.0
3.498046875,88429.0
3.5,88427.0
3.501953125,88403.0
3.50390625,88440.0
3.505859375,88425.0
3.5078125,88443.0
3.509765625,88447.0
3.51171875,88443.0
3.513671875,88443.0
3.515625,88453.0
3.517578125,88474.0
3.51953125,88489.0
3.521484375,88463.0
3.5234375,88470.0
3.525390625,88476.0
3.52734375,88500.0
3.529296875,88481.0
3.53125,88481.0
3.533203125,88476.0
3.53515625,88468.0
3.537109375,88483.0
3.5390625,88518.0
3.541015625,88497.0
3.54296875,88510.0
3.544921875,88527.0
3.546875,88547.0
3.548828125,88533.0
3.55078125,88505.0
3.552734375,88536.0
3.5546875,88541.0
3.556640625,88556.0
3.55859375,88540.0
3.560546875,88588.0
3.5625,88545.0
3.564453125,88574.0
3.56640625,88562.0
3.568359375,88581.0
3.5703125,88590.0
3.572265625,88579.0
3.57421875,88572.0
3.576171875,88618.0
3.578125,88617.0
3.580078125,88602.0
3.58203125,88629.0
3.583984375,88648.0
3.5859375,88613.0
3.587890625,88645.0
3.58984375,88646.0
3.591796875,88657.0
3.59375,88658.0
3.595703125,88650.0
3.59765625,88656.0
3.599609375,88662.0
3.6015625,88662.0
3.603515625,88693.0
3.60546875,88652.0
3.607421875,88704.0
3.609375,88672.0
3.611328125,88656.0
3.61328125,88672.0
3.615234375,88687.0
3.6171875,88707.0
3.619140625,88718.0
3.62109375,88733.0
3.623046875,88735.0
3.625,88738.0
3.626953125,88744.0
3.62890625,88735.0
3.630859375,88744.0
3.6328125,88767.0
3.634765625,88752.0
3.63671875,88779.0
3.638671875,88740.0
3.640625,88768.0
3.642578125,88774.0
3.64453125,88748.0
3.646484375,88790.0
3.6484375,88780.0
3.650390625,88798.0
3.65234375,88778.0
3.654296875,88762.0
3.65625,88775.0
3.658203125,88763.0
3.66015625,88769.0
3.662109375,88778.0
3.6640625,88790.0
3.666015625,88772.0
3.66796875,88781.0
3.669921875,88780.0
3.671875,88786.0
3.673828125,88811.0
3.67578125,88783.0
3.677734375,88791.0
3.6796875,88804.0
3.681640625,88789.0
3.68359375,88831.0
3.685546875,88819.0
3.6875,88817.0
3.689453125,88845.0
3.69140625,88850.0
3.693359375,88868.0
3.6953125,88848.0
3.697265625,88853.0
3.69921875,88866.0
3.701171875,88881.0
3.703125,88890.0
3.705078125,88899.0
3.70703125,88881.0
3.708984375,88900.0
3.7109375,88910.0
3.712890625,88876.0
3.71484375,88886.0
3.716796875,88899.0
3.71875,88923.0
3.720703125,88911.0
3.72265625,88914.0
3.724609375,88920.0
3.7265625,88937.0
3.728515625,88947.0
3.73046875,88950.0
3.732421875,88950.0
3.734375,88964.0
3.736328125,88957.0
3.73828125,88962.0
3.740234375,88970.0
3.7421875,88961.0
3.744140625,88977.0
3.74609375,88993.0
3.748046875,88977.0
3.75,88994.0
3.751953125,89009.0
3.75390625,89006.0
3.755859375,88996.0
3.7578125,89014.0
3.759765625,89013.0
3.76171875,89038.0
3.763671875,89041.0
3.765625,89028.0
3.767578125,89029.0
3.76953125,89047.0
3.771484375,89036.0
3.7734375,89034.0
3.775390625,89025.0
3.77734375,89026.0
3.779296875,89040.0
3.78125,89053.0
3.783203125,89074.0
3.78515625,89077.0
3.787109375,89076.0
3.7890625,89062.0
3.791015625,89098.0
3.79296875,89090.0
3.794921875,89084.0
3.796875,89092.0
3.798828125,89125.0
3.80078125,89096.0
3.802734375,89098.0
3.8046875,89098.0
3.806640625,89078.0
3.80859375,89091.0
3.810546875,89103.0
3.8125,89093.0
3.814453125,89076.0
3.81640625,89071.0
3.818359375,89090.0
3.8203125,89092.0
3.822265625,89076.0
3.82421875,89063.0
3.826171875,89042.0
3.828125,89051.0
3.830078125,89032.0
3.83203125,89041.0
3.833984375,88990.0
3.8359375,88994.0
3.837890625,88966.0
3.83984375,88949.0
3.841796875,88929.0
3.84375,88915.0
3.845703125,88904.0
3.84765625,88874.0
3.849609375,88874.0
3.8515625,88851.0
3.853515625,88805.0
3.85546875,88794.0
3.857421875,88779.0
3.859375,88742.0
3.861328125,88713.0
3.86328125,88691.0
3.865234375,88667.0
3.8671875,88636.0
3.869140625,88625.0
3.87109375,88577.0
3.873046875,88556.0
3.875,88526.0
3.876953125,88498.0
3.87890625,88471.0
3.880859375,88466.0
3.8828125,88448.0
3.884765625,88417.0
3.88671875,88391.0
3.888671875,88384.0
3.890625,88339.0
3.892578125,88325.0
3.89453125,88306.0
3.896484375,88287.0
3.8984375,88240.0
3.900390625,88228.0
3.90234375,88197.0
3.904296875,88183.0
3.90625,88175.0
3.908203125,88159.0
3.91015625,88155.0
3.912109375,88105.0
3.9140625,88116.0
3.916015625,88070.0
3.91796875,88042.0
3.919921875,88035.0
3.921875,88006.0
3.923828125,87978.0
3.92578125,87972.0
3.927734375,87976.0
3.9296875,87958.0
3.931640625,87916.0
3.93359375,87897.0
3.935546875,87888.0
3.9375,87841.0
3.939453125,87865.0
3.94140625,87837.0
3.943359375,87841.0
3.9453125,87828.0
3.947265625,87800.0
3.94921875,87785.0
3.951171875,87787.0
3.953125,87752.0
3.955078125,87731.0
3.95703125,87717.0
3.958984375,87738.0
3.9609375,87721.0
3.962890625,87707.0
3.96484375,87688.0
3.966796875,87674.0
3.96875,87655.0
3.970703125,87640.0
3.97265625,87650.0
3.974609375,87602.0
3.9765625,87617.0
3.978515625,87610.0
3.98046875,87607.0
3.982421875,87565.0
3.984375,87570.0
3.986328125,87566.0
3.98828125,87585.0
3.990234375,87560.0
3.9921875,87552.0
3.994140625,87506.0
3.99609375,87530.0
3.998046875,87493.0
4.0,87528.0
4.001953125,87510.0
4.00390625,87483.0
4.005859375,87478.0
4.0078125,87498.0
4.009765625,87444.0
4.01171875,87466.0
4.013671875,87445.0
4.015625,87449.0
4.017578125,87445.0
4.01953125,87454.0
4.021484375,87468.0
4.0234375,87436.0
4.025390625,87423.0
4.02734375,87432.0
4.029296875,87439.0
4.03125,87423.0
4.033203125,87445.0
4.03515625,87421.0
4.037109375,87426.0
4.0390625,87420.0
4.041015625,87430.0
4.04296875,87461.0
4.044921875,87439.0
4.046875,87437.0
4.048828125,87452.0
4.05078125,87469.0
4.052734375,87458.0
4.0546875,87469.0
4.056640625,87442.0
4.05859375,87433.0
4.060546875,87472.0
4.0625,87461.0
4.064453125,87459.0
4.06640625,87475.0
4.068359375,87489.0
4.0703125,87484.0
4.072265625,87477.0
4.07421875,87482.0
4.076171875,87484.0
4.078125,87474.0
4.080078125,87468.0
4.08203125,87495.0
4.083984375,87511.0
4.0859375,87530.0
4.087890625,87515.0
4.08984375,87529.0
4.091796875,87549.0
4.09375,87523.0
4.095703125,87534.0
4.09765625,87536.0
4.099609375,87513.0
4.1015625,87512.0
4.103515625,87521.0
4.10546875,87529.0
4.107421875,87526.0
4.109375,87531.0
4.111328125,87551.0
4.11328125,87532.0
4.115234375,87541.0
4.1171875,87527.0
4.119140625,87548.0
4.12109375,87542.0
4.123046875,87543.0
4.125,87529.0
4.126953125,87555.0
4.12890625,87566.0
4.130859375,87555.0
4.1328125,87555.0
4.134765625,87553.0
4.13671875,87556.0
4.138671875,87556.0
4.140625,87550.0
4.142578125,87549.0
4.14453125,87558.0
4.146484375,87539.0
4.1484375,87571.0
4.150390625,87561.0
4.15234375,87573.0
4.154296875,87557.0
4.15625,87583.0
4.158203125,87547.0
4.16015625,87582.0
4.162109375,87576.0
4.1640625,87557.0
4.166015625,87592.0
4.16796875,87603.0
4.169921875,87585.0
4.171875,87583.0
4.173828125,87582.0
4.17578125,87601.0
4.177734375,87598.0
4.1796875,87608.0
4.181640625,87614.0
4.18359375,87603.0
4.185546875,87589.0
4.1875,87592.0
4.189453125,87601.0
4.19140625,87589.0
4.193359375,87603.0
4.1953125,87626.0
4.197265625,87582.0
4.19921875,87617.0
4.201171875,87618.0
4.203125,87631.0
4.205078125,87614.0
4.20703125,87628.0
4.208984375,87634.0
4.2109375,87633.0
4.212890625,87642.0
4.21484375,87627.0
4.216796875,87634.0
4.21875,87617.0
4.220703125,87636.0
4.22265625,87639.0
4.224609375,87646.0
4.2265625,87619.0
4.228515625,87660.0
4.23046875,87663.0
4.232421875,87679.0
4.234375,87689.0
4.236328125,87682.0
4.23828125,87652.0
4.240234375,87667.0
4.2421875,87673.0
4.244140625,87684.0
4.24609375,87670.0
4.248046875,87672.0
4.25,87678.0
4.251953125,87707.0
4.25390625,87691.0
4.255859375,87713.0
4.2578125,87700.0
4.259765625,87700.0
4.26171875,87722.0
4.263671875,87717.0
4.265625,87734.0
4.267578125,87704.0
4.26953125,87729.0
4.271484375,87735.0
4.2734375,87747.0
4.275390625,87746.0
4.27734375,87734.0
4.279296875,87734.0
4.28125,87745.0
4.283203125,87784.0
4.28515625,87762.0
4.287109375,87791.0
4.2890625,87799.0
4.291015625,87797.0
4.29296875,87777.0
4.294921875,87794.0
4.296875,87784.0
4.298828125,87805.0
4.30078125,87815.0
4.302734375,87813.0
4.3046875,87831.0
4.306640625,87823.0
4.30859375,87868.0
4.310546875,87844.0
4.3125,87859.0
4.314453125,87858.0
4.31640625,87858.0
4.318359375,87879.0
4.3203125,87887.0
4.322265625,87879.0
4.32421875,87901.0
4.326171875,87897.0
4.328125,87930.0
4.330078125,87926.0
4.33203125,87922.0
4.333984375,87923.0
4.3359375,87954.0
4.337890625,87952.0
4.33984375,87951.0
4.341796875,87935.0
4.34375,87970.0
4.345703125,87981.0
4.34765625,87963.0
4.349609375,88007.0
4.3515625,88008.0
4.353515625,88005.0
4.35546875,87994.0
4.357421875,88033.0
4.359375,88009.0
4.361328125,88019.0
4.36328125,88015.0
4.365234375,88021.0
4.3671875,88056.0
4.369140625,88046.0
4.37109375,88057.0
4.373046875,88064.0
4.375,88057.0
4.376953125,88083.0
4.37890625,88073.0
4.380859375,88061.0
4.3828125,88084.0
4.384765625,88118.0
4.38671875,88089.0
4.388671875,88085.0
4.390625,88115.0
4.392578125,88126.0
4.39453125,88129.0
4.396484375,88114.0
4.3984375,88137.0
4.400390625,88119.0
4.40234375,88139.0
4.404296875,88153.0
4.40625,88132.0
4.408203125,88153.0
4.41015625,88175.0
4.412109375,88156.0
4.4140625,88173.0
4.416015625,88179.0
4.41796875,88202.0
4.419921875,88203.0
4.421875,88191.0
4.423828125,88195.0
4.42578125,88211.0
4.427734375,88201.0
4.4296875,88222.0
4.431640625,88225.0
4.43359375,88224.0
4.435546875,88245.0
4.4375,88253.0
4.439453125,88233.0
4.44140625,88240.0
4.443359375,88263.0
4.4453125,88254.0
4.447265625,88272.0
4.44921875,88288.0
4.451171875,88293.0
4.453125,88298.0
4.455078125,88307.0
4.45703125,88279.0
4.458984375,88305.0
4.4609375,88320.0
4.462890625,88330.0
4.46484375,88341.0
4.466796875,88356.0
4.46875,88334.0
4.470703125,88340.0
4.47265625,88342.0
4.474609375,88355.0
4.4765625,88356.0
4.478515625,88381.0
4.48046875,88368.0
4.482421875,88378.0
4.484375,88405.0
4.486328125,88409.0
4.48828125,88409.0
4.490234375,88431.0
4.4921875,88431.0
4.494140625,88435.0
4.49609375,88449.0
4.498046875,88436.0
4.5,88438.0
4.501953125,88444.0
4.50390625,88455.0
4.505859375,88447.0
4.5078125,88464.0
4.509765625,88491.0
4.51171875,88491.0
4.513671875,88491.0
4.515625,88511.0
4.517578125,88502.0
4.51953125,88497.0
4.521484375,88505.0
4.5234375,88503.0
4.525390625,88539.0
4.52734375,88522.0
4.529296875,88517.0
4.53125,88536.0
4.533203125,88554.0
4.53515625,88526.0
4.537109375,88546.0
4.5390625,88566.0
4.541015625,88548.0
4.54296875,88575.0
4.544921875,88570.0
4.546875,88583.0
4.548828125,88594.0
4.55078125,88582.0
4.552734375,88600.0
4.5546875,88607.0
4.556640625,88598.0
4.55859375,88616.0
4.560546875,88598.0
4.5625,88634.0
4.564453125,88612.0
4.56640625,88606.0
4.568359375,88608.0
4.5703125,88648.0
4.572265625,88628.0
4.57421875,88614.0
4.576171875,88610.0
4.578125,88620.0
4.580078125,88607.0
4.58203125,88641.0
4.583984375,88604.0
4.5859375,88598.0
4.587890625,88588.0
4.58984375,88581.0
4.591796875,88594.0
4.59375,88570.0
4.595703125,88566.0
4.59765625,88571.0
4.599609375,88507.0
4.6015625,88520.0
4.603515625,88507.0
4.60546875,88480.0
4.607421875,88472.0
4.609375,88449.0
4.611328125,88424.0
4.61328125,88435.0
4.615234375,88387.0
4.6171875,88389.0
4.619140625,88343.0
4.62109375,88316.0
4.623046875,88307.0
4.625,88284.0
4.626953125,88245.0
4.62890625,88217.0
4.630859375,88210.0
4.6328125,88171.0
4.634765625,88148.0
4.63671875,88117.0
4.638671875,88101.0
4.640625,88075.0
4.642578125,88044.0
4.64453125,87989.0
4.646484375,87987.0
4.6484375,87985.0
4.650390625,87942.0
4.65234375,87945.0
4.654296875,87898.0
4.65625,87906.0
4.658203125,87839.0
4.66015625,87845.0
4.662109375,87812.0
4.6640625,87794.0
4.666015625,87776.0
4.66796875,87752.0
4.669921875,87716.0
4.671875,87703.0
4.673828125,87670.0
4.67578125,87670.0
4.677734375,87664.0
4.6796875,87650.0
4.681640625,87627.0
4.68359375,87579.0
4.685546875,87581.0
4.6875,87586.0
4.689453125,87545.0
4.69140625,87537.0
4.693359375,87531.0
4.6953125,87510.0
4.697265625,87476.0
4.69921875,87471.0
4.701171875,87443.0
4.703125,87441.0
4.705078125,87423.0
4.70703125,87425.0
4.708984375,87390.0
4.7109375,87375.0
4.712890625,87385.0
4.71484375,87388.0
4.716796875,87366.0
4.71875,87350.0
4.720703125,87331.0
4.72265625,87310.0
4.724609375,87332.0
4.7265625,87293.0
4.728515625,87302.0
4.73046875,87270.0
4.732421875,87282.0
4.734375,87280.0
4.736328125,87268.0
4.73828125,87257.0
4.740234375,87228.0
4.7421875,87235.0
4.744140625,87214.0
4.74609375,87217.0
4.748046875,87240.0
4.75,87212.0
4.751953125,87184.0
4.75390625,87168.0
4.755859375,87159.0
4.7578125,87178.0
4.759765625,87165.0
4.76171875,87129.0
4.763671875,87149.0
4.765625,87148.0
4.767578125,87145.0
4.76953125,87132.0
4.771484375,87119.0
4.7734375,87119.0
4.775390625,87111.0
4.77734375,87105.0
4.779296875,87099.0
4.78125,87077.0
4.783203125,87090.0
4.78515625,87097.0
4.787109375,87083.0
4.7890625,87084.0
4.791015625,87082.0
4.79296875,87107.0
4.794921875,87102.0
4.796875,87102.0
4.798828125,87068.0
4.80078125,87109.0
4.802734375,87097.0
4.8046875,87109.0
4.806640625,87099.0
4.80859375,87137.0
4.810546875,87107.0
4.8125,87125.0
4.814453125,87134.0
4.81640625,87122.0
4.818359375,87136.0
4.8203125,87136.0
4.822265625,87132.0
4.82421875,87161.0
4.826171875,87139.0
4.828125,87167.0
4.830078125,87174.0
4.83203125,87170.0
4.833984375,87180.0
4.8359375,87175.0
4.837890625,87188.0
4.83984375,87208.0
4.841796875,87191.0
4.84375,87199.0
4.845703125,87217.0
4.84765625,87210.0
4.849609375,87230.0
4.8515625,87224.0
4.853515625,87214.0
4.85546875,87260.0
4.857421875,87239.0
4.859375,87243.0
4.861328125,87220.0
4.86328125,87257.0
4.865234375,87254.0
4.8671875,87259.0
4.869140625,87235.0
4.87109375,87244.0
4.873046875,87267.0
4.875,87256.0
4.876953125,87230.0
4.87890625,87252.0
4.880859375,87251.0
4.8828125,87263.0
4.884765625,87261.0
4.88671875,87260.0
4.888671875,87252.0
4.890625,87273.0
4.892578125,87246.0
4.89453125,87264.0
4.896484375,87287.0
4.8984375,87264.0
4.900390625,87274.0
4.90234375,87262.0
4.904296875,87258.0
4.90625,87297.0
4.908203125,87292.0
4.91015625,87271.0
4.912109375,87287.0
4.9140625,87296.0
4.916015625,87289.0
4.91796875,87267.0
4.919921875,87262.0
4.921875,87258.0
4.923828125,87264.0
4.92578125,87243.0
4.927734375,87259.0
4.9296875,87259.0
4.931640625,87250.0
4.93359375,87270.0
4.935546875,87282.0
4.9375,87267.0
4.939453125,87255.0
4.94140625,87261.0
4.943359375,87271.0
4.9453125,87265.0
4.947265625,87268.0
4.94921875,87262.0
4.951171875,87288.0
4.953125,87292.0
4.955078125,87293.0
4.95703125,87280.0
4.958984375,87292.0
4.9609375,87305.0
4.962890625,87296.0
4.96484375,87302.0
4.966796875,87305.0
4.96875,87311.0
4.970703125,87305.0
4.97265625,87328.0
4.974609375,87325.0
4.9765625,87338.0
4.978515625,87341.0
4.98046875,87322.0
4.982421875,87321.0
4.984375,87317.0
4.986328125,87323.0
4.98828125,87348.0
4.990234375,87335.0
4.9921875,87346.0
4.994140625,87355.0
4.99609375,87372.0
4.998046875,87345.0
5.0,87352.0
5.001953125,87373.0
5.00390625,87377.0
5.005859375,87400.0
5.0078125,87382.0
5.009765625,87382.0
5.01171875,87390.0
5.013671875,87405.0
5.015625,87391.0
5.017578125,87420.0
5.01953125,87417.0
5.021484375,87415.0
5.0234375,87454.0
5.025390625,87454.0
5.02734375,87468.0
5.029296875,87471.0
5.03125,87461.0
5.033203125,87486.0
5.03515625,87499.0
5.037109375,87475.0
5.0390625,87490.0
5.041015625,87501.0
5.04296875,87509.0
5.044921875,87513.0
5.046875,87515.0
5.048828125,87517.0
5.05078125,87515.0
5.052734375,87532.0
5.0546875,87558.0
5.056640625,87548.0
5.05859375,87553.0
5.060546875,87562.0
5.0625,87568.0
5.064453125,87563.0
5.06640625,87573.0
5.068359375,87596.0
5.0703125,87589.0
5.072265625,87638.0
5.07421875,87617.0
5.076171875,87628.0
5.078125,87623.0
5.080078125,87631.0
5.08203125,87621.0
5.083984375,87621.0
5.0859375,87654.0
5.087890625,87642.0
5.08984375,87630.0
5.091796875,87644.0
5.09375,87638.0
5.095703125,87681.0
5.09765625,87677.0
5.099609375,87692.0
5.1015625,87677.0
5.103515625,87669.0
5.10546875,87676.0
5.107421875,87696.0
5.109375,87714.0
5.111328125,87720.0
5.11328125,87700.0
5.115234375,87724.0
5.1171875,87735.0
5.119140625,87719.0
5.12109375,87717.0
5.123046875,87714.0
5.125,87739.0
5.126953125,87737.0
5.12890625,87758.0
5.130859375,87763.0
5.1328125,87785.0
5.134765625,87763.0
5.13671875,87783.0
5.138671875,87788.0
5.140625,87794.0
5.142578125,87780.0
5.14453125,87801.0
5.146484375,87799.0
5.1484375,87793.0
5.150390625,87832.0
5.15234375,87813.0
5.154296875,87836.0
5.15625,87825.0
5.158203125,87845.0
5.16015625,87823.0
5.162109375,87825.0
5.1640625,87844.0
5.166015625,87833.0
5.16796875,87834.0
5.169921875,87882.0
5.171875,87886.0
5.173828125,87870.0
5.17578125,87892.0
5.177734375,87886.0
5.1796875,87883.0
5.181640625,87882.0
5.18359375,87885.0
5.185546875,87920.0
5.1875,87908.0
5.189453125,87908.0
5.19140625,87896.0
5.193359375,87920.0
5.1953125,87930.0
5.197265625,87936.0
5.19921875,87945.0
5.201171875,87923.0
5.203125,87981.0
5.205078125,87933.0
5.20703125,87926.0
5.208984375,87960.0
5.2109375,87957.0
5.212890625,87981.0
5.21484375,87979.0
5.216796875,87992.0
5.21875,88000.0
5.220703125,88006.0
5.22265625,88001.0
5.224609375,87998.0
5.2265625,88008.0
5.228515625,87997.0
5.23046875,88011.0
5.232421875,88014.0
5.234375,88036.0
5.236328125,88043.0
5.23828125,88032.0
5.240234375,88057.0
5.2421875,88069.0
5.244140625,88056.0
5.24609375,88065.0
5.248046875,88051.0
5.25,88083.0
5.251953125,88102.0
5.25390625,88100.0
5.255859375,88110.0
5.2578125,88128.0
5.259765625,88101.0
5.26171875,88110.0
5.263671875,88084.0
5.265625,88147.0
5.267578125,88127.0
5.26953125,88158.0
5.271484375,88122.0
5.2734375,88154.0
5.275390625,88166.0
5.27734375,88162.0
5.279296875,88160.0
5.28125,88167.0
5.283203125,88159.0
5.28515625,88189.0
5.287109375,88177.0
5.2890625,88188.0
5.291015625,88181.0
5.29296875,88189.0
5.294921875,88199.0
5.296875,88229.0
5.298828125,88227.0
5.30078125,88222.0
5.302734375,88231.0
5.3046875,88227.0
5.306640625,88240.0
5.30859375,88242.0
5.310546875,88251.0
5.3125,88259.0
5.314453125,88271.0
5.31640625,88268.0
5.318359375,88286.0
5.3203125,88289.0
5.322265625,88266.0
5.32421875,88275.0
5.326171875,88266.0
5.328125,88267.0
5.330078125,88296.0
5.33203125,88276.0
5.333984375,88267.0
5.3359375,88263.0
5.337890625,88270.0
5.33984375,88268.0
5.341796875,88276.0
5.34375,88249.0
5.345703125,88261.0
5.34765625,88238.0
5.349609375,88219.0
5.3515625,88226.0
5.353515625,88229.0
5.35546875,88210.0
5.357421875,88212.0
5.359375,88184.0
5.361328125,88142.0
5.36328125,88138.0
5.365234375,88113.0
5.3671875,88107.0
5.369140625,88094.0
5.37109375,88045.0
5.373046875,88065.0
5.375,88042.0
5.376953125,88012.0
5.37890625,88008.0
5.380859375,87950.0
5.3828125,87946.0
5.384765625,87900.0
5.38671875,87880.0
5.388671875,87852.0
5.390625,87863.0
5.392578125,87816.0
5.39453125,87798.0
5.396484375,87790.0
5.3984375,87761.0
5.400390625,87746.0
5.40234375,87718.0
5.404296875,87675.0
5.40625,87653.0
5.408203125,87643.0
5.41015625,87620.0
5.412109375,87593.0
5.4140625,87549.0
5.416015625,87549.0
5.41796875,87506.0
5.419921875,87500.0
5.421875,87463.0
5.423828125,87435.0
5.42578125,87418.0
5.427734375,87420.0
5.4296875,87395.0
5.431640625,87375.0
5.43359375,87355.0
5.435546875,87345.0
5.4375,87321.0
5.439453125,87319.0
5.44140625,87304.0
5.443359375,87273.0
5.4453125,87280.0
5.447265625,87268.0
5.44921875,87241.0
5.451171875,87217.0
5.453125,87257.0
5.455078125,87208.0
5.45703125,87195.0
5.458984375,87220.0
5.4609375,87179.0
5.462890625,87170.0
5.46484375,87140.0
5.466796875,87140.0
5.46875,87137.0
5.470703125,87117.0
5.47265625,87132.0
5.474609375,87118.0
5.4765625,87094.0
5.478515625,87115.0
5.48046875,87110.0
5.482421875,87076.0
5.484375,87054.0
5.486328125,87061.0
5.48828125,87065.0
5.490234375,87064.0
5.4921875,87063.0
5.494140625,87041.0
5.49609375,87045.0
5.498046875,87059.0
5.5,87050.0
5.501953125,87035.0
5.50390625,87015.0
5.505859375,87023.0
5.5078125,87012.0
5.509765625,87009.0
5.51171875,87008.0
5.513671875,86986.0
5.515625,86999.0
5.517578125,87003.0
5.51953125,86992.0
5.521484375,87001.0
5.5234375,87005.0
5.525390625,86973.0
5.52734375,86989.0
5.529296875,86986.0
5.53125,87011.0
5.533203125,86982.0
5.53515625,86988.0
5.537109375,86966.0
5.5390625,86992.0
5.541015625,86996.0
5.54296875,86994.0
5.544921875,86976.0
5.546875,87002.0
5.548828125,86982.0
5.55078125,86999.0
5.552734375,86993.0
5.5546875,87028.0
5.556640625,86987.0
5.55859375,87004.0
5.560546875,87028.0
5.5625,87033.0
5.564453125,87006.0
5.56640625,87013.0
5.568359375,87028.0
5.5703125,87056.0
5.572265625,87075.0
5.57421875,87053.0
5.576171875,87045.0
5.578125,87066.0
5.580078125,87071.0
5.58203125,87072.0
5.583984375,87088.0
5.5859375,87070.0
5.587890625,87091.0
5.58984375,87094.0
5.591796875,87107.0
5.59375,87129.0
5.595703125,87131.0
5.59765625,87108.0
5.599609375,87139.0
5.6015625,87139.0
5.603515625,87129.0
5.60546875,87123.0
5.607421875,87121.0
5.609375,87152.0
5.611328125,87164.0
5.61328125,87164.0
5.615234375,87174.0
5.6171875,87170.0
5.619140625,87175.0
5.62109375,87161.0
5.623046875,87165.0
5.625,87192.0
5.626953125,87176.0
5.62890625,87183.0
5.630859375,87165.0
5.6328125,87185.0
5.634765625,87192.0
5.63671875,87200.0
5.638671875,87203.0
5.640625,87200.0
5.642578125,87195.0
5.64453125,87210.0
5.646484375,87183.0
5.6484375,87199.0
5.650390625,87218.0
5.65234375,87210.0
5.654296875,87186.0
5.65625,87216.0
5.658203125,87222.0
5.66015625,87212.0
5.662109375,87194.0
5.6640625,87201.0
5.666015625,87204.0
5.66796875,87208.0
5.669921875,87230.0
5.671875,87212.0
5.673828125,87214.0
5.67578125,87214.0
5.677734375,87187.0
5.6796875,87224.0
5.681640625,87234.0
5.68359375,87213.0
5.685546875,87231.0
5.6875,87228.0
5.689453125,87236.0
5.69140625,87245.0
5.693359375,87265.0
5.6953125,87242.0
5.697265625,87257.0
5.69921875,87253.0
5.701171875,87258.0
5.703125,87278.0
5.705078125,87262.0
5.70703125,87279.0
5.708984375,87291.0
5.7109375,87289.0
5.712890625,87279.0
5.71484375,87270.0
5.716796875,87299.0
5.71875,87302.0
5.720703125,87279.0
5.72265625,87296.0
5.724609375,87303.0
5.7265625,87316.0
5.728515625,87314.0
5.73046875,87319.0
5.732421875,87335.0
5.734375,87319.0
5.736328125,87335.0
5.73828125,87342.0
5.740234375,87343.0
5.7421875,87345.0
5.744140625,87331.0
5.74609375,87350.0
5.748046875,87353.0
5.75,87358.0
5.751953125,87352.0
5.75390625,87353.0
5.755859375,87371.0
5.7578125,87394.0
5.759765625,87383.0
5.76171875,87407.0
5.763671875,87411.0
5.765625,87397.0
5.767578125,87407.0
5.76953125,87410.0
5.771484375,87414.0
5.7734375,87409.0
5.775390625,87411.0
5.77734375,87441.0
5.779296875,87437.0
5.78125,87427.0
5.783203125,87455.0
5.78515625,87435.0
5.787109375,87419.0
5.7890625,87452.0
5.791015625,87474.0
5.79296875,87470.0
5.794921875,87480.0
5.796875,87499.0
5.798828125,87505.0
5.80078125,87503.0
5.802734375,87491.0
5.8046875,87511.0
5.806640625,87508.0
5.80859375,87534.0
5.810546875,87533.0
5.8125,87531.0
5.814453125,87522.0
5.81640625,87528.0
5.818359375,87526.0
5.8203125,87549.0
5.822265625,87552.0
5.82421875,87561.0
5.826171875,87566.0
5.828125,87577.0
5.830078125,87585.0
5.83203125,87556.0
5.833984375,87591.0
5.8359375,87588.0
5.837890625,87604.0
5.83984375,87609.0
5.841796875,87614.0
5.84375,87595.0
5.845703125,87615.0
5.84765625,87611.0
5.849609375,87612.0
5.8515625,87633.0
5.853515625,87630.0
5.85546875,87636.0
5.857421875,87652.0
5.859375,87667.0
5.861328125,87650.0
5.86328125,87666.0
5.865234375,87649.0
5.8671875,87649.0
5.869140625,87683.0
5.87109375,87669.0
5.873046875,87690.0
5.875,87685.0
5.876953125,87689.0
5.87890625,87681.0
5.880859375,87703.0
5.8828125,87694.0
5.884765625,87717.0
5.88671875,87691.0
5.888671875,87747.0
5.890625,87723.0
5.892578125,87752.0
5.89453125,87749.0
5.896484375,87750.0
5.8984375,87760.0
5.900390625,87763.0
5.90234375,87756.0
5.904296875,87759.0
5.90625,87752.0
5.908203125,87750.0
5.91015625,87792.0
5.912109375,87787.0
5.9140625,87776.0
5.916015625,87782.0
5.91796875,87789.0
5.919921875,87808.0
5.921875,87800.0
5.923828125,87810.0
5.92578125,87796.0
5.927734375,87799.0
5.9296875,87832.0
5.931640625,87822.0
5.93359375,87847.0
5.935546875,87873.0
5.9375,87864.0
5.939453125,87863.0
5.94140625,87849.0
5.943359375,87855.0
5.9453125,87862.0
5.947265625,87862.0
5.94921875,87872.0
5.951171875,87887.0
5.953125,87889.0
5.955078125,87902.0
5.95703125,87895.0
5.958984375,87901.0
5.9609375,87913.0
5.962890625,87945.0
5.96484375,87921.0
5.966796875,87958.0
5.96875,87935.0
5.970703125,87955.0
5.97265625,87969.0
5.974609375,87960.0
5.9765625,87982.0
5.978515625,87964.0
5.98046875,87993.0
5.982421875,87998.0
5.984375,87996.0
5.986328125,87990.0
5.98828125,88010.0
5.990234375,87991.0
5.9921875,88011.0
5.994140625,88004.0
5.99609375,88041.0
5.998046875,88047.0
6.0,88051.0
6.001953125,88055.0
6.00390625,88033.0
6.005859375,88065.0
6.0078125,88074.0
6.009765625,88063.0
6.01171875,88060.0
6.013671875,88064.0
6.015625,88068.0
6.017578125,88076.0
6.01953125,88067.0
6.021484375,88107.0
6.0234375,88093.0
6.025390625,88107.0
6.02734375,88107.0
6.029296875,88125.0
6.03125,88135.0
6.033203125,88158.0
6.03515625,88137.0
6.037109375,88125.0
6.0390625,88148.0
6.041015625,88150.0
6.04296875,88157.0
6.044921875,88168.0
6.046875,88157.0
6.048828125,88153.0
6.05078125,88159.0
6.052734375,88160.0
6.0546875,88189.0
6.056640625,88178.0
6.05859375,88182.0
6.060546875,88204.0
6.0625,88189.0
6.064453125,88182.0
6.06640625,88198.0
6.068359375,88203.0
6.0703125,88191.0
6.072265625,88214.0
6.07421875,88200.0
6.076171875,88213.0
6.078125,88199.0
6.080078125,88208.0
6.08203125,88220.0
6.083984375,88182.0
6.0859375,88186.0
6.087890625,88181.0
6.08984375,88186.0
6.091796875,88159.0
6.09375,88168.0
6.095703125,88172.0
6.09765625,88140.0
6.099609375,88155.0
6.1015625,88107.0
6.103515625,88132.0
6.10546875,88073.0
6.107421875,88055.0
6.109375,88085.0
6.111328125,88068.0
6.11328125,88033.0
6.115234375,87998.0
6.1171875,87969.0
6.119140625,87972.0
6.12109375,87933.0
6.123046875,87927.0
6.125,87902.0
6.126953125,87874.0
6.12890625,87855.0
6.130859375,87820.0
6.1328125,87779.0
6.134765625,87765.0
6.13671875,87771.0
6.138671875,87740.0
6.140625,87705.0
6.142578125,87690.0
6.14453125,87664.0
6.146484375,87630.0
6.1484375,87616.0
6.150390625,87587.0
6.15234375,87603.0
6.154296875,87518.0
6.15625,87527.0
6.158203125,87502.0
6.16015625,87470.0
6.162109375,87454.0
6.1640625,87438.0
6.166015625,87400.0
6.16796875,87373.0
6.169921875,87349.0
6.171875,87326.0
6.173828125,87335.0
6.17578125,87293.0
6.177734375,87263.0
6.1796875,87239.0
6.181640625,87243.0
6.18359375,87197.0
6.185546875,87191.0
6.1875,87183.0
6.189453125,87145.0
6.19140625,87128.0
6.193359375,87120.0
6.1953125,87100.0
6.197265625,87074.0
6.19921875,87069.0
6.201171875,87051.0
6.203125,87044.0
6.205078125,87029.0
6.20703125,87031.0
6.208984375,86999.0
6.2109375,86997.0
6.212890625,86965.0
6.21484375,86962.0
6.216796875,86958.0
6.21875,86929.0
6.220703125,86931.0
6.22265625,86903.0
6.224609375,86898.0
6.2265625,86866.0
6.228515625,86854.0
6.23046875,86847.0
6.232421875,86837.0
6.234375,86835.0
6.236328125,86842.0
6.23828125,86816.0
6.240234375,86802.0
6.2421875,86817.0
6.244140625,86791.0
6.24609375,86769.0
6.248046875,86785.0
6.25,86770.0
6.251953125,86742.0
6.25390625,86736.0
6.255859375,86719.0
6.2578125,86709.0
6.259765625,86732.0
6.26171875,86711.0
6.263671875,86718.0
6.265625,86733.0
6.267578125,86706.0
6.26953125,86669.0
6.271484375,86667.0
6.2734375,86674.0
6.275390625,86692.0
6.27734375,86683.0
6.279296875,86674.0
6.28125,86683.0
6.283203125,86646.0
6.28515625,86661.0
6.287109375,86653.0
6.2890625,86667.0
6.291015625,86661.0
6.29296875,86647.0
6.294921875,86653.0
6.296875,86662.0
6.298828125,86652.0
6.30078125,86639.0
6.302734375,86658.0
6.3046875,86644.0
6.306640625,86640.0
6.30859375,86635.0
6.310546875,86648.0
6.3125,86624.0
6.314453125,86649.0
6.31640625,86656.0
6.318359375,86676.0
6.3203125,86655.0
6.322265625,86666.0
6.32421875,86645.0
6.326171875,86671.0
6.328125,86686.0
6.330078125,86652.0
6.33203125,86663.0
6.333984375,86668.0
6.3359375,86702.0
6.337890625,86689.0
6.33984375,86713.0
6.341796875,86720.0
6.34375,86719.0
6.345703125,86720.0
6.34765625,86728.0
6.349609375,86698.0
6.3515625,86696.0
6.353515625,86742.0
6.35546875,86742.0
6.357421875,86737.0
6.359375,86754.0
6.361328125,86756.0
6.36328125,86772.0
6.365234375,86750.0
6.3671875,86743.0
6.369140625,86757.0
6.37109375,86755.0
6.373046875,86738.0
6.375,86763.0
6.376953125,86757.0
6.37890625,86757.0
6.380859375,86763.0
6.3828125,86783.0
6.384765625,86761.0
6.38671875,86758.0
6.388671875,86773.0
6.390625,86770.0
6.392578125,86789.0
6.39453125,86786.0
6.396484375,86780.0
6.3984375,86777.0
6.400390625,86784.0
6.40234375,86778.0
6.404296875,86802.0
6.40625,86807.0
6.408203125,86786.0
6.41015625,86801.0
6.412109375,86783.0
6.4140625,86816.0
6.416015625,86804.0
6.41796875,86804.0
6.419921875,86785.0
6.421875,86811.0
6.423828125,86810.0
6.42578125,86787.0
6.427734375,86802.0
6.4296875,86805.0
6.431640625,86786.0
6.43359375,86819.0
6.435546875,86812.0
6.4375,86815.0
6.439453125,86819.0
6.44140625,86810.0
6.443359375,86829.0
6.4453125,86811.0
6.447265625,86828.0
6.44921875,86842.0
6.451171875,86813.0
6.453125,86842.0
6.455078125,86835.0
6.45703125,86849.0
6.458984375,86852.0
6.4609375,86842.0
6.462890625,86858.0
6.46484375,86872.0
6.466796875,86865.0
6.46875,86861.0
6.470703125,86867.0
6.47265625,86873.0
6.474609375,86889.0
6.4765625,86876.0
6.478515625,86870.0
6.48046875,86880.0
6.482421875,86882.0
6.484375,86893.0
6.486328125,86912.0
6.48828125,86900.0
6.490234375,86906.0
6.4921875,86911.0
6.494140625,86918.0
6.49609375,86920.0
6.498046875,86905.0
6.5,86942.0
6.501953125,86938.0
6.50390625,86937.0
6.505859375,86961.0
6.5078125,86933.0
6.509765625,86943.0
6.51171875,86943.0
6.513671875,86960.0
6.515625,86965.0
6.517578125,86978.0
6.51953125,86978.0
6.521484375,86990.0
6.5234375,86997.0
6.525390625,86989.0
6.52734375,86991.0
6.529296875,87000.0
6.53125,87003.0
6.533203125,87000.0
6.53515625,87008.0
6.537109375,87014.0
6.5390625,87044.0
6.541015625,87035.0
6.54296875,87043.0
6.544921875,87046.0
6.546875,87031.0
6.548828125,87041.0
6.55078125,87046.0
6.552734375,87066.0
6.5546875,87099.0
6.556640625,87067.0
6.55859375,87103.0
6.560546875,87110.0
6.5625,87114.0
6.564453125,87116.0
6.56640625,87142.0
6.568359375,87114.0
6.5703125,87123.0
6.572265625,87135.0
6.57421875,87129.0
6.576171875,87157.0
6.578125,87147.0
6.580078125,87162.0
6.58203125,87163.0
6.583984375,87175.0
6.5859375,87196.0
6.587890625,87198.0
6.58984375,87209.0
6.591796875,87199.0
6.59375,87202.0
6.595703125,87218.0
6.59765625,87234.0
6.599609375,87228.0
6.6015625,87240.0
6.603515625,87247.0
6.60546875,87235.0
6.607421875,87257.0
6.609375,87264.0
6.611328125,87227.0
6.61328125,87257.0
6.615234375,87260.0
6.6171875,87282.0
6.619140625,87294.0
6.62109375,87288.0
6.623046875,87301.0
6.625,87307.0
6.626953125,87305.0
6.62890625,87324.0
6.630859375,87327.0
6.6328125,87301.0
6.634765625,87313.0
6.63671875,87338.0
6.638671875,87348.0
6.640625,87356.0
6.642578125,87348.0
6.64453125,87361.0
6.646484375,87388.0
6.6484375,87359.0
6.650390625,87386.0
6.65234375,87388.0
6.654296875,87370.0
6.65625,87373.0
6.658203125,87406.0
6.66015625,87400.0
6.662109375,87400.0
6.6640625,87391.0
6.666015625,87412.0
6.66796875,87399.0
6.669921875,87427.0
6.671875,87442.0
6.673828125,87429.0
6.67578125,87423.0
6.677734375,87457.0
6.6796875,87473.0
6.681640625,87457.0
6.68359375,87468.0
6.685546875,87497.0
6.6875,87462.0
6.689453125,87492.0
6.69140625,87481.0
6.693359375,87471.0
6.6953125,87512.0
6.697265625,87526.0
6.69921875,87519.0
6.701171875,87513.0
6.703125,87545.0
6.705078125,87544.0
6.70703125,87542.0
6.708984375,87553.0
6.7109375,87554.0
6.712890625,87568.0
6.71484375,87572.0
6.716796875,87592.0
6.71875,87573.0
6.720703125,87588.0
6.72265625,87612.0
6.724609375,87611.0
6.7265625,87599.0
6.728515625,87609.0
6.73046875,87615.0
6.732421875,87615.0
6.734375,87632.0
6.736328125,87653.0
6.73828125,87635.0
6.740234375,87667.0
6.7421875,87656.0
6.744140625,87661.0
6.74609375,87654.0
6.748046875,87674.0
6.75,87690.0
6.751953125,87681.0
6.75390625,87699.0
6.755859375,87701.0
6.7578125,87693.0
6.759765625,87716.0
6.76171875,87701.0
6.763671875,87738.0
6.765625,87729.0
6.767578125,87769.0
6.76953125,87744.0
6.771484375,87735.0
6.7734375,87743.0
6.775390625,87774.0
6.77734375,87743.0
6.779296875,87788.0
6.78125,87772.0
6.783203125,87779.0
6.78515625,87786.0
6.787109375,87819.0
6.7890625,87818.0
6.791015625,87827.0
6.79296875,87779.0
6.794921875,87836.0
6.796875,87817.0
6.798828125,87820.0
6.80078125,87854.0
6.802734375,87845.0
6.8046875,87848.0
6.806640625,87869.0
6.80859375,87854.0
6.810546875,87840.0
6.8125,87829.0
6.814453125,87865.0
6.81640625,87864.0
6.818359375,87892.0
6.8203125,87895.0
6.822265625,87868.0
6.82421875,87877.0
6.826171875,87878.0
6.828125,87883.0
6.830078125,87875.0
6.83203125,87876.0
6.833984375,87892.0
6.8359375,87887.0
6.837890625,87890.0
6.83984375,87889.0
6.841796875,87858.0
6.84375,87884.0
6.845703125,87879.0
6.84765625,87874.0
6.849609375,87857.0
6.8515625,87862.0
6.853515625,87811.0
6.85546875,87837.0
6.857421875,87812.0
6.859375,87823.0
6.861328125,87779.0
6.86328125,87796.0
6.865234375,87770.0
6.8671875,87762.0
6.869140625,87756.0
6.87109375,87707.0
6.873046875,87681.0
6.875,87676.0
6.876953125,87651.0
6.87890625,87617.0
6.880859375,87610.0
6.8828125,87583.0
6.884765625,87579.0
6.88671875,87566.0
6.888671875,87494.0
6.890625,87466.0
6.892578125,87441.0
6.89453125,87436.0
6.896484375,87407.0
6.8984375,87390.0
6.900390625,87388.0
6.90234375,87345.0
6.904296875,87316.0
6.90625,87298.0
6.908203125,87244.0
6.91015625,87215.0
6.912109375,87199.0
6.9140625,87161.0
6.916015625,87155.0
6.91796875,87121.0
6.919921875,87083.0
6.921875,87095.0
6.923828125,87041.0
6.92578125,87027.0
6.927734375,87003.0
6.9296875,86949.0
6.931640625,86944.0
6.93359375,86931.0
6.935546875,86901.0
6.9375,86873.0
6.939453125,86847.0
6.94140625,86828.0
6.943359375,86814.0
6.9453125,86778.0
6.947265625,86759.0
6.94921875,86754.0
6.951171875,86739.0
6.953125,86703.0
6.955078125,86682.0
6.95703125,86670.0
6.958984375,86654.0
6.9609375,86629.0
6.962890625,86628.0
6.96484375,86599.0
6.966796875,86566.0
6.96875,86555.0
6.970703125,86557.0
6.97265625,86501.0
6.974609375,86512.0
6.9765625,86505.0
6.978515625,86480.0
6.98046875,86489.0
6.982421875,86467.0
6.984375,86445.0
6.986328125,86438.0
6.98828125,86431.0
6.990234375,86405.0
6.9921875,86409.0
6.994140625,86381.0
6.99609375,86382.0
6.998046875,86356.0
7.0,86358.0
7.001953125,86341.0
7.00390625,86321.0
7.005859375,86315.0
7.0078125,86318.0
7.009765625,86307.0
7.01171875,86313.0
7.013671875,86266.0
7.015625,86254.0
7.017578125,86252.0
7.01953125,86259.0
7.021484375,86233.0
7.0234375,86262.0
7.025390625,86240.0
7.02734375,86215.0
7.029296875,86218.0
7.03125,86217.0
7.033203125,86199.0
7.03515625,86219.0
7.037109375,86186.0
7.0390625,86168.0
7.041015625,86192.0
7.04296875,86190.0
7.044921875,86165.0
7.046875,86186.0
7.048828125,86184.0
7.05078125,86137.0
7.052734375,86173.0
7.0546875,86155.0
7.056640625,86143.0
7.05859375,86141.0
7.060546875,86148.0
7.0625,86137.0
7.064453125,86166.0
7.06640625,86180.0
7.068359375,86163.0
7.0703125,86145.0
7.072265625,86176.0
7.07421875,86139.0
7.076171875,86161.0
7.078125,86169.0
7.080078125,86155.0
7.08203125,86152.0
7.083984375,86184.0
7.0859375,86160.0
7.087890625,86192.0
7.08984375,86192.0
7.091796875,86196.0
7.09375,86187.0
7.095703125,86199.0
7.09765625,86184.0
7.099609375,86198.0
7.1015625,86200.0
7.103515625,86241.0
7.10546875,86208.0
7.107421875,86229.0
7.109375,86226.0
7.111328125,86247.0
7.11328125,86229.0
7.115234375,86228.0
7.1171875,86231.0
7.119140625,86251.0
7.12109375,86264.0
7.123046875,86259.0
7.125,86267.0
7.126953125,86261.0
7.12890625,86308.0
7.130859375,86308.0
7.1328125,86294.0
7.134765625,86300.0
7.13671875,86283.0
7.138671875,86311.0
7.140625,86301.0
7.142578125,86293.0
7.14453125,86304.0
7.146484375,86309.0
7.1484375,86316.0
7.150390625,86328.0
7.15234375,86316.0
7.154296875,86320.0
7.15625,86299.0
7.158203125,86301.0
7.16015625,86330.0
7.162109375,86349.0
7.1640625,86308.0
7.166015625,86352.0
7.16796875,86346.0
7.169921875,86334.0
7.171875,86322.0
7.173828125,86322.0
7.17578125,86341.0
7.177734375,86368.0
7.1796875,86332.0
7.181640625,86351.0
7.18359375,86370.0
7.185546875,86362.0
7.1875,86351.0
7.189453125,86357.0
7.19140625,86356.0
7.193359375,86341.0
7.1953125,86360.0
7.197265625,86379.0
7.19921875,86363.0
7.201171875,86353.0
7.203125,86355.0
7.205078125,86353.0
7.20703125,86384.0
7.208984375,86382.0
7.2109375,86358.0
7.212890625,86377.0
7.21484375,86405.0
7.216796875,86390.0
7.21875,86404.0
7.220703125,86414.0
7.22265625,86392.0
7.224609375,86391.0
7.2265625,86432.0
7.228515625,86436.0
7.23046875,86424.0
7.232421875,86424.0
7.234375,86408.0
7.236328125,86442.0
7.23828125,86443.0
7.240234375,86461.0
7.2421875,86457.0
7.244140625,86447.0
7.24609375,86454.0
7.248046875,86460.0
7.25,86478.0
7.251953125,86491.0
7.25390625,86480.0
7.255859375,86498.0
7.2578125,86489.0
7.259765625,86494.0
7.26171875,86492.0
7.263671875,86518.0
7.265625,86529.0
7.267578125,86533.0
7.26953125,86525.0
7.271484375,86535.0
7.2734375,86536.0
7.275390625,86561.0
7.27734375,86525.0
7.279296875,86555.0
7.28125,86581.0
7.283203125,86585.0
7.28515625,86598.0
7.287109375,86605.0
7.2890625,86574.0
7.291015625,86612.0
7.29296875,86598.0
7.294921875,86605.0
7.296875,86618.0
7.298828125,86605.0
7.30078125,86636.0
7.302734375,86641.0
7.3046875,86652.0
7.306640625,86678.0
7.30859375,86668.0
7.310546875,86678.0
7.3125,86677.0
7.314453125,86683.0
7.31640625,86693.0
7.318359375,86714.0
7.3203125,86710.0
7.322265625,86724.0
7.32421875,86720.0
7.326171875,86721.0
7.328125,86746.0
7.330078125,86735.0
7.33203125,86735.0
7.333984375,86774.0
7.3359375,86733.0
7.337890625,86779.0
7.33984375,86768.0
7.341796875,86790.0
7.34375,86770.0
7.345703125,86812.0
7.34765625,86792.0
7.349609375,86827.0
7.3515625,86808.0
7.353515625,86831.0
7.35546875,86824.0
7.357421875,86850.0
7.359375,86854.0
7.361328125,86868.0
7.36328125,86850.0
7.365234375,86865.0
7.3671875,86865.0
7.369140625,86895.0
7.37109375,86878.0
7.373046875,86868.0
7.375,86891.0
7.376953125,86887.0
7.37890625,86915.0
7.380859375,86907.0
7.3828125,86918.0
7.384765625,86965.0
7.38671875,86970.0
7.388671875,86954.0
7.390625,86976.0
7.392578125,86986.0
7.39453125,86976.0
7.396484375,86988.0
7.3984375,86998.0
7.400390625,86993.0
7.40234375,87005.0
7.404296875,86994.0
7.40625,87037.0
7.408203125,87033.0
7.41015625,87036.0
7.412109375,87041.0
7.4140625,87058.0
7.416015625,87044.0
7.41796875,87051.0
7.419921875,87068.0
7.421875,87074.0
7.423828125,87084.0
7.42578125,87090.0
7.427734375,87097.0
7.4296875,87107.0
7.431640625,87109.0
7.43359375,87122.0
7.435546875,87111.0
7.4375,87137.0
7.439453125,87121.0
7.44140625,87120.0
7.443359375,87159.0
7.4453125,87139.0
7.447265625,87151.0
7.44921875,87180.0
7.451171875,87178.0
7.453125,87203.0
7.455078125,87175.0
7.45703125,87204.0
7.458984375,87210.0
7.4609375,87195.0
7.462890625,87206.0
7.46484375,87243.0
7.466796875,87230.0
7.46875,87245.0
7.470703125,87262.0
7.47265625,87245.0
7.474609375,87240.0
7.4765625,87265.0
7.478515625,87269.0
7.48046875,87291.0
7.482421875,87264.0
7.484375,87281.0
7.486328125,87309.0
7.48828125,87301.0
7.490234375,87306.0
7.4921875,87309.0
7.494140625,87330.0
7.49609375,87341.0
7.498046875,87333.0
7.5,87343.0
7.501953125,87363.0
7.50390625,87389.0
7.505859375,87338.0
7.5078125,87356.0
7.509765625,87389.0
7.51171875,87353.0
7.513671875,87373.0
7.515625,87395.0
7.517578125,87407.0
7.51953125,87400.0
7.521484375,87402.0
7.5234375,87423.0
7.525390625,87433.0
7.52734375,87439.0
7.529296875,87436.0
7.53125,87436.0
7.533203125,87448.0
7.53515625,87467.0
7.537109375,87444.0
7.5390625,87457.0
7.541015625,87468.0
7.54296875,87455.0
7.544921875,87506.0
7.546875,87519.0
7.548828125,87500.0
7.55078125,87502.0
7.552734375,87514.0
7.5546875,87505.0
7.556640625,87530.0
7.55859375,87526.0
7.560546875,87548.0
7.5625,87534.0
7.564453125,87552.0
7.56640625,87570.0
7.568359375,87577.0
7.5703125,87574.0
7.572265625,87611.0
7.57421875,87606.0
7.576171875,87583.0
7.578125,87572.0
7.580078125,87619.0
7.58203125,87617.0
7.583984375,87620.0
7.5859375,87633.0
7.587890625,87628.0
7.58984375,87643.0
7.591796875,87662.0
7.59375,87637.0
7.595703125,87657.0
7.59765625,87661.0
7.599609375,87666.0
7.6015625,87666.0
7.603515625,87661.0
7.60546875,87668.0
7.607421875,87672.0
7.609375,87691.0
7.611328125,87685.0
7.61328125,87659.0
7.615234375,87675.0
7.6171875,87672.0
7.619140625,87662.0
7.62109375,87697.0
7.623046875,87694.0
7.625,87658.0
7.626953125,87672.0
7.62890625,87650.0
7.630859375,87661.0
7.6328125,87640.0
7.634765625,87627.0
7.63671875,87590.0
7.638671875,87613.0
7.640625,87601.0
7.642578125,87570.0
7.64453125,87565.0
7.646484375,87538.0
7.6484375,87535.0
7.650390625,87534.0
7.65234375,87504.0
7.654296875,87495.0
7.65625,87470.0
7.658203125,87431.0
7.66015625,87436.0
7.662109375,87378.0
7.6640625,87392.0
7.666015625,87343.0
7.66796875,87342.0
7.669921875,87325.0
7.671875,87279.0
7.673828125,87264.0
7.67578125,87257.0
7.677734375,87235.0
7.6796875,87191.0
7.681640625,87178.0
7.68359375,87130.0
7.685546875,87146.0
7.6875,87093.0
7.689453125,87090.0
7.69140625,87061.0
7.693359375,86992.0
7.6953125,87013.0
7.697265625,86960.0
7.69921875,86954.0
7.701171875,86918.0
7.703125,86905.0
7.705078125,86896.0
7.70703125,86873.0
7.708984375,86850.0
7.7109375,86842.0
7.712890625,86827.0
7.71484375,86779.0
7.716796875,86740.0
7.71875,86722.0
7.720703125,86739.0
7.72265625,86709.0
7.724609375,86706.0
7.7265625,86675.0
7.728515625,86667.0
7.73046875,86649.0
7.732421875,86637.0
7.734375,86612.0
7.736328125,86574.0
7.73828125,86566.0
7.740234375,86571.0
7.7421875,86564.0
7.744140625,86551.0
7.74609375,86546.0
7.748046875,86531.0
7.75,86536.0
7.751953125,86485.0
7.75390625,86486.0
7.755859375,86477.0
7.7578125,86459.0
7.759765625,86450.0
7.76171875,86433.0
7.763671875,86429.0
7.765625,86433.0
7.767578125,86418.0
7.76953125,86424.0
7.771484375,86383.0
7.7734375,86401.0
7.775390625,86356.0
7.77734375,86357.0
7.779296875,86364.0
7.78125,86314.0
7.783203125,86340.0
7.78515625,86319.0
7.787109375,86329.0
7.7890625,86324.0
7.791015625,86321.0
7.79296875,86313.0
7.794921875,86307.0
7.796875,86282.0
7.798828125,86296.0
7.80078125,86290.0
7.802734375,86283.0
7.8046875,86254.0
7.806640625,86250.0
7.80859375,86250.0
7.810546875,86261.0
7.8125,86241.0
7.814453125,86259.0
7.81640625,86240.0
7.818359375,86238.0
7.8203125,86263.0
7.822265625,86234.0
7.82421875,86214.0
7.826171875,86232.0
7.828125,86253.0
7.830078125,86243.0
7.83203125,86231.0
7.833984375,86240.0
7.8359375,86226.0
7.837890625,86229.0
7.83984375,86231.0
7.841796875,86224.0
7.84375,86245.0
7.845703125,86256.0
7.84765625,86256.0
7.849609375,86260.0
7.8515625,86231.0
7.853515625,86269.0
7.85546875,86242.0
7.857421875,86278.0
7.859375,86262.0
7.861328125,86273.0
7.86328125,86263.0
7.865234375,86266.0
7.8671875,86261.0
7.869140625,86299.0
7.87109375,86324.0
7.873046875,86294.0
7.875,86317.0
7.876953125,86312.0
7.87890625,86304.0
7.880859375,86316.0
7.8828125,86335.0
7.884765625,86327.0
7.88671875,86337.0
7.888671875,86332.0
7.890625,86360.0
7.892578125,86362.0
7.89453125,86352.0
7.896484375,86382.0
7.8984375,86341.0
7.900390625,86347.0
7.90234375,86361.0
7.904296875,86367.0
7.90625,86363.0
7.908203125,86365.0
7.91015625,86385.0
7.912109375,86386.0
7.9140625,86397.0
7.916015625,86409.0
7.91796875,86361.0
7.919921875,86381.0
7.921875,86390.0
7.923828125,86408.0
7.92578125,86393.0
7.927734375,86420.0
7.9296875,86398.0
7.931640625,86416.0
7.93359375,86438.0
7.935546875,86401.0
7.9375,86419.0
7.939453125,86421.0
7.94140625,86418.0
7.943359375,86424.0
7.9453125,86430.0
7.947265625,86419.0
7.94921875,86429.0
7.951171875,86442.0
7.953125,86470.0
7.955078125,86432.0
7.95703125,86426.0
7.958984375,86439.0
7.9609375,86444.0
7.962890625,86438.0
7.96484375,86450.0
7.966796875,86467.0
7.96875,86451.0
7.970703125,86460.0
7.97265625,86453.0
7.974609375,86469.0
7.9765625,86461.0
7.978515625,86470.0
7.98046875,86463.0
7.982421875,86473.0
7.984375,86466.0
7.986328125,86489.0
7.98828125,86487.0
7.990234375,86490.0
7.9921875,86493.0
7.994140625,86486.0
7.99609375,86494.0
7.998046875,86493.0
8.0,86486.0
8.001953125,86509.0
8.00390625,86506.0
8.005859375,86507.0
8.0078125,86514.0
8.009765625,86544.0
8.01171875,86555.0
8.013671875,86537.0
8.015625,86528.0
8.017578125,86550.0
8.01953125,86541.0
8.021484375,86569.0
8.0234375,86560.0
8.025390625,86563.0
8.02734375,86568.0
8.029296875,86571.0
8.03125,86562.0
8.033203125,86588.0
8.03515625,86575.0
8.037109375,86589.0
8.0390625,86580.0
8.041015625,86579.0
8.04296875,86626.0
8.044921875,86616.0
8.046875,86602.0
8.048828125,86630.0
8.05078125,86622.0
8.052734375,86622.0
8.0546875,86660.0
8.056640625,86660.0
8.05859375,86624.0
8.060546875,86672.0
8.0625,86664.0
8.064453125,86684.0
8.06640625,86681.0
8.068359375,86675.0
8.0703125,86690.0
8.072265625,86706.0
8.07421875,86699.0
8.076171875,86738.0
8.078125,86712.0
8.080078125,86714.0
8.08203125,86718.0
8.083984375,86748.0
8.0859375,86747.0
8.087890625,86756.0
8.08984375,86754.0
8.091796875,86760.0
8.09375,86793.0
8.095703125,86793.0
8.09765625,86786.0
8.099609375,86791.0
8.1015625,86795.0
8.103515625,86803.0
8.10546875,86799.0
8.107421875,86817.0
8.109375,86844.0
8.111328125,86848.0
8.11328125,86826.0
8.115234375,86845.0
8.1171875,86863.0
8.119140625,86864.0
8.12109375,86861.0
8.123046875,86860.0
8.125,86865.0
8.126953125,86888.0
8.12890625,86887.0
8.130859375,86891.0
8.1328125,86915.0
8.134765625,86911.0
8.13671875,86908.0
8.138671875,86909.0
8.140625,86923.0
8.142578125,86929.0
8.14453125,86909.0
8.146484375,86930.0
8.1484375,86963.0
8.150390625,86972.0
8.15234375,86955.0
8.154296875,86944.0
8.15625,86974.0
8.158203125,86970.0
8.16015625,86983.0
8.162109375,86992.0
8.1640625,86973.0
8.166015625,86990.0
8.16796875,87023.0
8.169921875,87001.0
8.171875,87043.0
8.173828125,87037.0
8.17578125,87035.0
8.177734375,87014.0
8.1796875,87041.0
8.181640625,87059.0
8.18359375,87060.0
8.185546875,87061.0
8.1875,87049.0
8.189453125,87067.0
8.19140625,87076.0
8.193359375,87093.0
8.1953125,87090.0
8.197265625,87079.0
8.19921875,87089.0
8.201171875,87112.0
8.203125,87108.0
8.205078125,87124.0
8.20703125,87128.0
8.208984375,87146.0
8.2109375,87122.0
8.212890625,87125.0
8.21484375,87150.0
8.216796875,87127.0
8.21875,87143.0
8.220703125,87132.0
8.22265625,87152.0
8.224609375,87167.0
8.2265625,87185.0
8.228515625,87159.0
8.23046875,87180.0
8.232421875,87198.0
8.234375,87165.0
8.236328125,87188.0
8.23828125,87183.0
8.240234375,87190.0
8.2421875,87155.0
8.244140625,87206.0
8.24609375,87184.0
8.248046875,87227.0
8.25,87198.0
8.251953125,87196.0
8.25390625,87211.0
8.255859375,87229.0
8.2578125,87215.0
8.259765625,87227.0
8.26171875,87237.0
8.263671875,87245.0
8.265625,87219.0
8.267578125,87256.0
8.26953125,87257.0
8.271484375,87237.0
8.2734375,87259.0
8.275390625,87276.0
8.27734375,87282.0
8.279296875,87256.0
8.28125,87231.0
8.283203125,87247.0
8.28515625,87258.0
8.287109375,87269.0
8.2890625,87260.0
8.291015625,87287.0
8.29296875,87288.0
8.294921875,87284.0
8.296875,87290.0
8.298828125,87289.0
8.30078125,87303.0
8.302734375,87322.0
8.3046875,87333.0
8.306640625,87322.0
8.30859375,87330.0
8.310546875,87371.0
8.3125,87350.0
8.314453125,87343.0
8.31640625,87369.0
8.318359375,87355.0
8.3203125,87344.0
8.322265625,87351.0
8.32421875,87350.0
8.326171875,87370.0
8.328125,87394.0
8.330078125,87395.0
8.33203125,87408.0
8.333984375,87418.0
8.3359375,87393.0
8.337890625,87402.0
8.33984375,87395.0
8.341796875,87401.0
8.34375,87397.0
8.345703125,87438.0
8.34765625,87421.0
8.349609375,87461.0
8.3515625,87463.0
8.353515625,87454.0
8.35546875,87458.0
8.357421875,87468.0
8.359375,87471.0
8.361328125,87467.0
8.36328125,87499.0
8.365234375,87495.0
8.3671875,87488.0
8.369140625,87521.0
8.37109375,87486.0
8.373046875,87529.0
8.375,87508.0
8.376953125,87502.0
8.37890625,87511.0
8.380859375,87495.0
8.3828125,87524.0
8.384765625,87517.0
8.38671875,87510.0
8.388671875,87501.0
8.390625,87525.0
8.392578125,87531.0
8.39453125,87522.0
8.396484375,87519.0
8.3984375,87486.0
8.400390625,87455.0
8.40234375,87492.0
8.404296875,87483.0
8.40625,87447.0
8.408203125,87461.0
8.41015625,87471.0
8.412109375,87427.0
8.4140625,87421.0
8.416015625,87420.0
8.41796875,87398.0
8.419921875,87361.0
8.421875,87351.0
8.423828125,87345.0
8.42578125,87308.0
8.427734375,87316.0
8.4296875,87291.0
8.431640625,87269.0
8.43359375,87244.0
8.435546875,87213.0
8.4375,87225.0
8.439453125,87160.0
8.44140625,87171.0
8.443359375,87153.0
8.4453125,87121.0
8.447265625,87106.0
8.44921875,87050.0
8.451171875,87049.0
8.453125,87032.0
8.455078125,86984.0
8.45703125,86976.0
8.458984375,86971.0
8.4609375,86939.0
8.462890625,86927.0
8.46484375,86896.0
8.466796875,86859.0
8.46875,86853.0
8.470703125,86825.0
8.47265625,86804.0
8.474609375,86759.0
8.4765625,86760.0
8.478515625,86725.0
8.48046875,86712.0
8.482421875,86690.0
8.484375,86655.0
8.486328125,86643.0
8.48828125,86621.0
8.490234375,86611.0
8.4921875,86616.0
8.494140625,86566.0
8.49609375,86579.0
8.498046875,86539.0
8.5,86537.0
8.501953125,86517.0
8.50390625,86491.0
8.505859375,86504.0
8.5078125,86491.0
8.509765625,86468.0
8.51171875,86436.0
8.513671875,86439.0
8.515625,86403.0
8.517578125,86434.0
8.51953125,86408.0
8.521484375,86395.0
8.5234375,86400.0
8.525390625,86376.0
8.52734375,86362.0
8.529296875,86357.0
8.53125,86371.0
8.533203125,86355.0
8.53515625,86345.0
8.537109375,86324.0
8.5390625,86307.0
8.541015625,86285.0
8.54296875,86302.0
8.544921875,86287.0
8.546875,86294.0
8.548828125,86268.0
8.55078125,86243.0
8.552734375,86245.0
8.5546875,86244.0
8.556640625,86242.0
8.55859375,86244.0
8.560546875,86224.0
8.5625,86202.0
8.564453125,86218.0
8.56640625,86200.0
8.568359375,86196.0
8.5703125,86193.0
8.572265625,86201.0
8.57421875,86185.0
8.576171875,86164.0
8.578125,86166.0
8.580078125,86148.0
8.58203125,86140.0
8.583984375,86131.0
8.5859375,86141.0
8.587890625,86113.0
8.58984375,86109.0
8.591796875,86127.0
8.59375,86111.0
8.595703125,86122.0
8.59765625,86148.0
8.599609375,86126.0
8.6015625,86107.0
8.603515625,86091.0
8.60546875,86136.0
8.607421875,86127.0
8.609375,86130.0
8.611328125,86124.0
8.61328125,86117.0
8.615234375,86155.0
8.6171875,86160.0
8.619140625,86126.0
8.62109375,86125.0
8.623046875,86133.0
8.625,86143.0
8.626953125,86156.0
8.62890625,86160.0
8.630859375,86148.0
8.6328125,86195.0
8.634765625,86164.0
8.63671875,86187.0
8.638671875,86173.0
8.640625,86173.0
8.642578125,86184.0
8.64453125,86207.0
8.646484375,86180.0
8.6484375,86228.0
8.650390625,86221.0
8.65234375,86226.0
8.654296875,86230.0
8.65625,86237.0
8.658203125,86216.0
8.66015625,86243.0
8.662109375,86225.0
8.6640625,86248.0
8.666015625,86241.0
8.66796875,86252.0
8.669921875,86248.0
8.671875,86256.0
8.673828125,86281.0
8.67578125,86265.0
8.677734375,86271.0
8.6796875,86278.0
8.681640625,86277.0
8.68359375,86278.0
8.685546875,86271.0
8.6875,86289.0
8.689453125,86303.0
8.69140625,86303.0
8.693359375,86309.0
8.6953125,86315.0
8.697265625,86305.0
8.69921875,86313.0
8.701171875,86316.0
8.703125,86279.0
8.705078125,86301.0
8.70703125,86316.0
8.708984375,86326.0
8.7109375,86309.0
8.712890625,86314.0
8.71484375,86324.0
8.716796875,86324.0
8.71875,86336.0
8.720703125,86325.0
8.72265625,86317.0
8.724609375,86331.0
8.7265625,86310.0
8.728515625,86312.0
8.73046875,86315.0
8.732421875,86331.0
8.734375,86341.0
8.736328125,86325.0
8.73828125,86327.0
8.740234375,86311.0
8.7421875,86311.0
8.744140625,86321.0
8.74609375,86312.0
8.748046875,86329.0
8.75,86347.0
8.751953125,86333.0
8.75390625,86345.0
8.755859375,86365.0
8.7578125,86337.0
8.759765625,86322.0
8.76171875,86357.0
8.763671875,86344.0
8.765625,86333.0
8.767578125,86355.0
8.76953125,86363.0
8.771484375,86369.0
8.7734375,86371.0
8.775390625,86364.0
8.77734375,86355.0
8.779296875,86346.0
8.78125,86362.0
8.783203125,86372.0
8.78515625,86366.0
8.787109375,86387.0
8.7890625,86417.0
8.791015625,86397.0
8.79296875,86391.0
8.794921875,86421.0
8.796875,86420.0
8.798828125,86432.0
8.80078125,86401.0
8.802734375,86425.0
8.8046875,86424.0
8.806640625,86426.0
8.80859375,86457.0
8.810546875,86418.0
8.8125,86450.0
8.814453125,86443.0
8.81640625,86472.0
8.818359375,86450.0
8.8203125,86479.0
8.822265625,86450.0
8.82421875,86465.0
8.826171875,86477.0
8.828125,86494.0
8.830078125,86505.0
8.83203125,86507.0
8.833984375,86502.0
8.8359375,86504.0
8.837890625,86538.0
8.83984375,86536.0
8.841796875,86544.0
8.84375,86523.0
8.845703125,86513.0
8.84765625,86550.0
8.849609375,86561.0
8.8515625,86564.0
8.853515625,86575.0
8.85546875,86586.0
8.857421875,86562.0
8.859375,86584.0
8.861328125,86572.0
8.86328125,86582.0
8.865234375,86583.0
8.8671875,86595.0
8.869140625,86610.0
8.87109375,86592.0
8.873046875,86629.0
8.875,86619.0
8.876953125,86629.0
8.87890625,86621.0
8.880859375,86642.0
8.8828125,86632.0
8.884765625,86658.0
8.88671875,86661.0
8.888671875,86650.0
8.890625,86667.0
8.892578125,86666.0
8.89453125,86684.0
8.896484375,86682.0
8.8984375,86674.0
8.900390625,86690.0
8.90234375,86699.0
8.904296875,86688.0
8.90625,86730.0
8.908203125,86708.0
8.91015625,86710.0
8.912109375,86702.0
8.9140625,86728.0
8.916015625,86720.0
8.91796875,86747.0
8.919921875,86742.0
8.921875,86737.0
8.923828125,86733.0
8.92578125,86763.0
8.927734375,86770.0
8.9296875,86762.0
8.931640625,86771.0
8.93359375,86790.0
8.935546875,86785.0
8.9375,86812.0
8.939453125,86783.0
8.94140625,86797.0
8.943359375,86800.0
8.9453125,86797.0
8.947265625,86807.0
8.94921875,86841.0
8.951171875,86834.0
8.953125,86833.0
8.955078125,86842.0
8.95703125,86841.0
8.958984375,86883.0
8.9609375,86865.0
8.962890625,86868.0
8.96484375,86860.0
8.966796875,86866.0
8.96875,86883.0
8.970703125,86903.0
8.97265625,86901.0
8.974609375,86901.0
8.9765625,86910.0
8.978515625,86897.0
8.98046875,86919.0
8.982421875,86920.0
8.984375,86914.0
8.986328125,86918.0
8.98828125,86927.0
8.990234375,86951.0
8.9921875,86941.0
8.994140625,86936.0
8.99609375,86950.0
8.998046875,86986.0
9.0,86980.0
9.001953125,86969.0
9.00390625,86992.0
9.005859375,86989.0
9.0078125,86986.0
9.009765625,86990.0
9.01171875,86996.0
9.013671875,86995.0
9.015625,86996.0
9.017578125,86997.0
9.01953125,87022.0
9.021484375,86997.0
9.0234375,87007.0
9.025390625,87004.0
9.02734375,87014.0
9.029296875,87016.0
9.03125,87022.0
9.033203125,87050.0
9.03515625,87060.0
9.037109375,87039.0
9.0390625,87064.0
9.041015625,87062.0
9.04296875,87063.0
9.044921875,87078.0
9.046875,87082.0
9.048828125,87080.0
9.05078125,87083.0
9.052734375,87095.0
9.0546875,87115.0
9.056640625,87097.0
9.05859375,87119.0
9.060546875,87128.0
9.0625,87138.0
9.064453125,87136.0
9.06640625,87148.0
9.068359375,87156.0
9.0703125,87116.0
9.072265625,87136.0
9.07421875,87147.0
9.076171875,87172.0
9.078125,87153.0
9.080078125,87180.0
9.08203125,87148.0
9.083984375,87158.0
9.0859375,87171.0
9.087890625,87168.0
9.08984375,87198.0
9.091796875,87205.0
9.09375,87225.0
9.095703125,87224.0
9.09765625,87223.0
9.099609375,87235.0
9.1015625,87215.0
9.103515625,87258.0
9.10546875,87234.0
9.107421875,87250.0
9.109375,87251.0
9.111328125,87243.0
9.11328125,87227.0
9.115234375,87257.0
9.1171875,87255.0
9.119140625,87264.0
9.12109375,87252.0
9.123046875,87277.0
9.125,87235.0
9.126953125,87255.0
9.12890625,87255.0
9.130859375,87236.0
9.1328125,87239.0
9.134765625,87238.0
9.13671875,87233.0
9.138671875,87238.0
9.140625,87227.0
9.142578125,87219.0
9.14453125,87178.0
9.146484375,87187.0
9.1484375,87194.0
9.150390625,87166.0
9.15234375,87174.0
9.154296875,87178.0
9.15625,87143.0
9.158203125,87135.0
9.16015625,87127.0
9.162109375,87099.0
9.1640625,87082.0
9.166015625,87060.0
9.16796875,87061.0
9.169921875,87049.0
9.171875,87030.0
9.173828125,87014.0
9.17578125,87016.0
9.177734375,86978.0
9.1796875,86962.0
9.181640625,86948.0
9.18359375,86903.0
9.185546875,86893.0
9.1875,86852.0
9.189453125,86847.0
9.19140625,86794.0
9.193359375,86788.0
9.1953125,86780.0
9.197265625,86715.0
9.19921875,86712.0
9.201171875,86730.0
9.203125,86683.0
9.205078125,86654.0
9.20703125,86618.0
9.208984375,86588.0
9.2109375,86565.0
9.212890625,86550.0
9.21484375,86518.0
9.216796875,86504.0
9.21875,86496.0
9.220703125,86459.0
9.22265625,86433.0
9.224609375,86417.0
9.2265625,86394.0
9.228515625,86372.0
9.23046875,86354.0
9.232421875,86325.0
9.234375,86305.0
9.236328125,86308.0
9.23828125,86286.0
9.240234375,86263.0
9.2421875,86249.0
9.244140625,86221.0
9.24609375,86230.0
9.248046875,86199.0
9.25,86163.0
9.251953125,86169.0
9.25390625,86155.0
9.255859375,86146.0
9.2578125,86121.0
9.259765625,86102.0
9.26171875,86089.0
9.263671875,86090.0
9.265625,86072.0
9.267578125,86055.0
9.26953125,86065.0
9.271484375,86059.0
9.2734375,86024.0
9.275390625,86038.0
9.27734375,86003.0
9.279296875,86011.0
9.28125,86001.0
9.283203125,85988.0
9.28515625,85986.0
9.287109375,85975.0
9.2890625,85964.0
9.291015625,85976.0
9.29296875,85948.0
9.294921875,85922.0
9.296875,85919.0
9.298828125,85905.0
9.30078125,85909.0
9.302734375,85904.0
9.3046875,85870.0
9.306640625,85865.0
9.30859375,85860.0
9.310546875,85863.0
9.3125,85850.0
9.314453125,85874.0
9.31640625,85821.0
9.318359375,85829.0
9.3203125,85840.0
9.322265625,85814.0
9.32421875,85813.0
9.326171875,85801.0
9.328125,85797.0
9.330078125,85811.0
9.33203125,85790.0
9.333984375,85801.0
9.3359375,85799.0
9.337890625,85803.0
9.33984375,85789.0
9.341796875,85794.0
9.34375,85778.0
9.345703125,85779.0
9.34765625,85764.0
9.349609375,85795.0
9.3515625,85804.0
9.353515625,85805.0
9.35546875,85780.0
9.357421875,85797.0
9.359375,85816.0
9.361328125,85811.0
9.36328125,85824.0
9.365234375,85818.0
9.3671875,85789.0
9.369140625,85820.0
9.37109375,85815.0
9.373046875,85843.0
9.375,85842.0
9.376953125,85829.0
9.37890625,85836.0
9.380859375,85845.0
9.3828125,85839.0
9.384765625,85834.0
9.38671875,85863.0
9.388671875,85876.0
9.390625,85858.0
9.392578125,85857.0
9.39453125,85894.0
9.396484375,85877.0
9.3984375,85899.0
9.400390625,85884.0
9.40234375,85853.0
9.404296875,85897.0
9.40625,85872.0
9.408203125,85894.0
9.41015625,85880.0
9.412109375,85882.0
9.4140625,85886.0
9.416015625,85905.0
9.41796875,85896.0
9.419921875,85907.0
9.421875,85888.0
9.423828125,85908.0
9.42578125,85905.0
9.427734375,85906.0
9.4296875,85899.0
9.431640625,85951.0
9.43359375,85911.0
9.435546875,85917.0
9.4375,85913.0
9.439453125,85918.0
9.44140625,85929.0
9.443359375,85923.0
9.4453125,85917.0
9.447265625,85936.0
9.44921875,85917.0
9.451171875,85916.0
9.453125,85923.0
9.455078125,85901.0
9.45703125,85927.0
9.458984375,85912.0
9.4609375,85920.0
9.462890625,85932.0
9.46484375,85913.0
9.466796875,85903.0
9.46875,85935.0
9.470703125,85922.0
9.47265625,85942.0
9.474609375,85948.0
9.4765625,85925.0
9.478515625,85957.0
9.48046875,85937.0
9.482421875,85944.0
9.484375,85929.0
9.486328125,85942.0
9.48828125,85938.0
9.490234375,85935.0
9.4921875,85955.0
9.494140625,85934.0
9.49609375,85951.0
9.498046875,85963.0
9.5,85956.0
9.501953125,85953.0
9.50390625,85967.0
9.505859375,85975.0
9.5078125,85963.0
9.509765625,85965.0
9.51171875,85966.0
9.513671875,85989.0
9.515625,85981.0
9.517578125,86001.0
9.51953125,85983.0
9.521484375,85977.0
9.5234375,85990.0
9.525390625,85997.0
9.52734375,85979.0
9.529296875,86008.0
9.53125,86006.0
9.533203125,86029.0
9.53515625,86031.0
9.537109375,86018.0
9.5390625,86039.0
9.541015625,86051.0
9.54296875,86052.0
9.544921875,86034.0
9.546875,86058.0
9.548828125,86063.0
9.55078125,86062.0
9.552734375,86080.0
9.5546875,86078.0
9.556640625,86088.0
9.55859375,86086.0
9.560546875,86105.0
9.5625,86118.0
9.564453125,86105.0
9.56640625,86103.0
9.568359375,86131.0
9.5703125,86109.0
9.572265625,86123.0
9.57421875,86119.0
9.576171875,86141.0
9.578125,86144.0
9.580078125,86165.0
9.58203125,86170.0
9.583984375,86172.0
9.5859375,86157.0
9.587890625,86168.0
9.58984375,86207.0
9.591796875,86197.0
9.59375,86212.0
9.595703125,86212.0
9.59765625,86205.0
9.599609375,86257.0
9.6015625,86210.0
9.603515625,86212.0
9.60546875,86242.0
9.607421875,86231.0
9.609375,86243.0
9.611328125,86276.0
9.61328125,86261.0
9.615234375,86279.0
9.6171875,86281.0
9.619140625,86286.0
9.62109375,86300.0
9.623046875,86310.0
9.625,86306.0
9.626953125,86311.0
9.62890625,86306.0
9.630859375,86310.0
9.6328125,86335.0
9.634765625,86340.0
9.63671875,86362.0
9.638671875,86336.0
9.640625,86338.0
9.642578125,86350.0
9.64453125,86368.0
9.646484375,86371.0
9.6484375,86368.0
9.650390625,86373.0
9.65234375,86375.0
9.654296875,86374.0
9.65625,86397.0
9.658203125,86391.0
9.66015625,86423.0
9.662109375,86409.0
9.6640625,86414.0
9.666015625,86429.0
9.66796875,86444.0
9.669921875,86426.0
9.671875,86456.0
9.673828125,86442.0
9.67578125,86457.0
9.677734375,86423.0
9.6796875,86458.0
9.681640625,86449.0
9.68359375,86483.0
9.685546875,86487.0
9.6875,86481.0
9.689453125,86482.0
9.69140625,86493.0
9.693359375,86483.0
9.6953125,86492.0
9.697265625,86500.0
9.69921875,86497.0
9.701171875,86521.0
9.703125,86537.0
9.705078125,86544.0
9.70703125,86536.0
9.708984375,86548.0
9.7109375,86560.0
9.712890625,86568.0
9.71484375,86566.0
9.716796875,86575.0
9.71875,86589.0
9.720703125,86594.0
9.72265625,86620.0
9.724609375,86604.0
9.7265625,86590.0
9.728515625,86611.0
9.73046875,86625.0
9.732421875,86640.0
9.734375,86640.0
9.736328125,86634.0
9.73828125,86638.0
9.740234375,86674.0
9.7421875,86660.0
9.744140625,86683.0
9.74609375,86684.0
9.748046875,86694.0
9.75,86703.0
9.751953125,86705.0
9.75390625,86700.0
9.755859375,86714.0
9.7578125,86722.0
9.759765625,86721.0
9.76171875,86731.0
9.763671875,86740.0
9.765625,86739.0
9.767578125,86756.0
9.76953125,86770.0
9.771484375,86756.0
9.7734375,86772.0
9.775390625,86779.0
9.77734375,86778.0
9.779296875,86795.0
9.78125,86798.0
9.783203125,86804.0
9.78515625,86822.0
9.787109375,86825.0
9.7890625,86807.0
9.791015625,86807.0
9.79296875,86826.0
9.794921875,86819.0
9.796875,86824.0
9.798828125,86848.0
9.80078125,86846.0
9.802734375,86872.0
9.8046875,86850.0
9.806640625,86862.0
9.80859375,86878.0
9.810546875,86889.0
9.8125,86868.0
9.814453125,86928.0
9.81640625,86881.0
9.818359375,86907.0
9.8203125,86916.0
9.822265625,86919.0
9.82421875,86928.0
9.826171875,86926.0
9.828125,86933.0
9.830078125,86932.0
9.83203125,86946.0
9.833984375,86979.0
9.8359375,86995.0
9.837890625,86965.0
9.83984375,86986.0
9.841796875,86975.0
9.84375,86993.0
9.845703125,86979.0
9.84765625,87001.0
9.849609375,86962.0
9.8515625,86990.0
9.853515625,87003.0
9.85546875,87028.0
9.857421875,87029.0
9.859375,87004.0
9.861328125,87009.0
9.86328125,87021.0
9.865234375,87006.0
9.8671875,87009.0
9.869140625,87009.0
9.87109375,87008.0
9.873046875,87000.0
9.875,87007.0
9.876953125,87003.0
9.87890625,87010.0
9.880859375,86977.0
9.8828125,86983.0
9.884765625,86974.0
9.88671875,86961.0
9.888671875,86936.0
9.890625,86927.0
9.892578125,86904.0
9.89453125,86892.0
9.896484375,86860.0
9.8984375,86865.0
9.900390625,86878.0
9.90234375,86851.0
9.904296875,86799.0
9.90625,86785.0
9.908203125,86760.0
9.91015625,86715.0
9.912109375,86706.0
9.9140625,86697.0
9.916015625,86673.0
9.91796875,86640.0
9.919921875,86621.0
9.921875,86597.0
9.923828125,86581.0
9.92578125,86536.0
9.927734375,86524.0
9.9296875,86483.0
9.931640625,86464.0
9.93359375,86407.0
9.935546875,86402.0
9.9375,86409.0
9.939453125,86362.0
9.94140625,86336.0
9.943359375,86323.0
9.9453125,86286.0
9.947265625,86267.0
9.94921875,86224.0
9.951171875,86208.0
9.953125,86170.0
9.955078125,86160.0
9.95703125,86143.0
9.958984375,86116.0
9.9609375,86094.0
9.962890625,86089.0
9.96484375,86065.0
9.966796875,86039.0
9.96875,86001.0
9.970703125,85998.0
9.97265625,85977.0
9.974609375,85963.0
9.9765625,85943.0
9.978515625,85907.0
9.98046875,85902.0
9.982421875,85882.0
9.984375,85871.0
9.986328125,85854.0
9.98828125,85849.0
9.990234375,85796.0
9.9921875,85789.0
9.994140625,85799.0
9.99609375,85777.0
9.998046875,85755.0
10.0,85728.0
10.001953125,85726.0
10.00390625,85707.0
10.005859375,85713.0
10.0078125,85687.0
10.009765625,85655.0
10.01171875,85683.0
10.013671875,85654.0
10.015625,85650.0
10.017578125,85636.0
10.01953125,85620.0
10.021484375,85597.0
10.0234375,85582.0
10.025390625,85573.0
10.02734375,85547.0
10.029296875,85576.0
10.03125,85534.0
10.033203125,85518.0
10.03515625,85546.0
10.037109375,85526.0
10.0390625,85500.0
10.041015625,85509.0
10.04296875,85497.0
10.044921875,85476.0
10.046875,85462.0
10.048828125,85471.0
10.05078125,85424.0
10.052734375,85460.0
10.0546875,85464.0
10.056640625,85434.0
10.05859375,85416.0
10.060546875,85405.0
10.0625,85410.0
10.064453125,85435.0
10.06640625,85401.0
10.068359375,85403.0
10.0703125,85379.0
10.072265625,85399.0
10.07421875,85379.0
10.076171875,85380.0
10.078125,85381.0
10.080078125,85388.0
10.08203125,85375.0
10.083984375,85381.0
10.0859375,85390.0
10.087890625,85364.0
10.08984375,85393.0
10.091796875,85393.0
10.09375,85373.0
10.095703125,85400.0
10.09765625,85383.0
10.099609375,85386.0
10.1015625,85379.0
10.103515625,85393.0
10.10546875,85398.0
10.107421875,85387.0
10.109375,85425.0
10.111328125,85425.0
10.11328125,85441.0
10.115234375,85436.0
10.1171875,85439.0
10.119140625,85454.0
10.12109375,85433.0
10.123046875,85445.0
10.125,85453.0
10.126953125,85467.0
10.12890625,85459.0
10.130859375,85463.0
10.1328125,85482.0
10.134765625,85482.0
10.13671875,85496.0
10.138671875,85497.0
10.140625,85503.0
10.142578125,85539.0
10.14453125,85509.0
10.146484375,85533.0
10.1484375,85537.0
10.150390625,85526.0
10.15234375,85520.0
10.154296875,85542.0
10.15625,85538.0
10.158203125,85540.0
10.16015625,85543.0
10.162109375,85549.0
10.1640625,85553.0
10.166015625,85582.0
10.16796875,85570.0
10.169921875,85571.0
10.171875,85558.0
10.173828125,85552.0
10.17578125,85568.0
10.177734375,85591.0
10.1796875,85569.0
10.181640625,85598.0
10.18359375,85625.0
10.185546875,85629.0
10.1875,85622.0
10.189453125,85604.0
10.19140625,85611.0
10.193359375,85620.0
10.1953125,85614.0
10.197265625,85603.0
10.19921875,85634.0
10.201171875,85652.0
10.203125,85608.0
10.205078125,85623.0
10.20703125,85645.0
10.208984375,85653.0
10.2109375,85652.0
10.212890625,85632.0
10.21484375,85644.0
10.216796875,85656.0
10.21875,85653.0
10.220703125,85681.0
10.22265625,85675.0
10.224609375,85690.0
10.2265625,85708.0
10.228515625,85716.0
10.23046875,85689.0
10.232421875,85684.0
10.234375,85717.0
10.236328125,85713.0
10.23828125,85707.0
10.240234375,85702.0
10.2421875,85743.0
10.244140625,85753.0
10.24609375,85743.0
10.248046875,85744.0
10.25,85720.0
10.251953125,85731.0
10.25390625,85749.0
10.255859375,85767.0
10.2578125,85749.0
10.259765625,85778.0
10.26171875,85782.0
10.263671875,85783.0
10.265625,85798.0
10.267578125,85789.0
10.26953125,85794.0
10.271484375,85797.0
10.2734375,85808.0
10.275390625,85802.0
10.27734375,85818.0
10.279296875,85797.0
10.28125,85829.0
10.283203125,85852.0
10.28515625,85819.0
10.287109375,85850.0
10.2890625,85858.0
10.291015625,85845.0
10.29296875,85870.0
10.294921875,85862.0
10.296875,85876.0
10.298828125,85881.0
10.30078125,85880.0
10.302734375,85888.0
10.3046875,85901.0
10.306640625,85914.0
10.30859375,85900.0
10.310546875,85904.0
10.3125,85923.0
10.314453125,85905.0
10.31640625,85933.0
10.318359375,85922.0
10.3203125,85957.0
10.322265625,85951.0
10.32421875,85953.0
10.326171875,85974.0
10.328125,85991.0
10.330078125,85989.0
10.33203125,85968.0
10.333984375,86005.0
10.3359375,86003.0
10.337890625,86008.0
10.33984375,86038.0
10.341796875,86040.0
10.34375,86042.0
10.345703125,86042.0
10.34765625,86064.0
10.349609375,86071.0
10.3515625,86071.0
10.353515625,86069.0
10.35546875,86096.0
10.357421875,86096.0
10.359375,86081.0
10.361328125,86091.0
10.36328125,86121.0
10.365234375,86116.0
10.3671875,86165.0
10.369140625,86157.0
10.37109375,86157.0
10.373046875,86161.0
10.375,86164.0
10.376953125,86193.0
10.37890625,86204.0
10.380859375,86181.0
10.3828125,86227.0
10.384765625,86206.0
10.38671875,86215.0
10.388671875,86219.0
10.390625,86236.0
10.392578125,86232.0
10.39453125,86236.0
10.396484375,86246.0
10.3984375,86255.0
10.400390625,86254.0
10.40234375,86286.0
10.404296875,86270.0
10.40625,86301.0
10.408203125,86300.0
10.41015625,86299.0
10.412109375,86319.0
10.4140625,86327.0
10.416015625,86361.0
10.41796875,86326.0
10.419921875,86343.0
10.421875,86365.0
10.423828125,86359.0
10.42578125,86380.0
10.427734375,86376.0
10.4296875,86390.0
10.431640625,86403.0
10.43359375,86402.0
10.435546875,86399.0
10.4375,86412.0
10.439453125,86434.0
10.44140625,86436.0
10.443359375,86442.0
10.4453125,86458.0
10.447265625,86459.0
10.44921875,86442.0
10.451171875,86469.0
10.453125,86427.0
10.455078125,86491.0
10.45703125,86503.0
10.458984375,86489.0
10.4609375,86500.0
10.462890625,86528.0
10.46484375,86510.0
10.466796875,86532.0
10.46875,86530.0
10.470703125,86517.0
10.47265625,86538.0
10.474609375,86551.0
10.4765625,86557.0
10.478515625,86575.0
10.48046875,86570.0
10.482421875,86574.0
10.484375,86586.0
10.486328125,86604.0
10.48828125,86609.0
10.490234375,86599.0
10.4921875,86616.0
10.494140625,86617.0
10.49609375,86655.0
10.498046875,86642.0
10.5,86647.0
10.501953125,86658.0
10.50390625,86667.0
10.505859375,86675.0
10.5078125,86685.0
10.509765625,86683.0
10.51171875,86718.0
10.513671875,86719.0
10.515625,86720.0
10.517578125,86732.0
10.51953125,86760.0
10.521484375,86760.0
10.5234375,86752.0
10.525390625,86762.0
10.52734375,86763.0
10.529296875,86765.0
10.53125,86774.0
10.533203125,86811.0
10.53515625,86791.0
10.537109375,86823.0
10.5390625,86807.0
10.541015625,86829.0
10.54296875,86843.0
10.544921875,86834.0
10.546875,86841.0
10.548828125,86850.0
10.55078125,86870.0
10.552734375,86856.0
10.5546875,86868.0
10.556640625,86882.0
10.55859375,86906.0
10.560546875,86909.0
10.5625,86931.0
10.564453125,86928.0
10.56640625,86929.0
10.568359375,86942.0
10.5703125,86936.0
10.572265625,86978.0
10.57421875,86946.0
10.576171875,86965.0
10.578125,86983.0
10.580078125,86997.0
10.58203125,86989.0
10.583984375,87006.0
10.5859375,87002.0
10.587890625,87026.0
10.58984375,87022.0
10.591796875,87014.0
10.59375,87030.0
10.595703125,87066.0
10.59765625,87060.0
10.599609375,87049.0
10.6015625,87086.0
10.603515625,87079.0
10.60546875,87095.0
10.607421875,87091.0
10.609375,87107.0
10.611328125,87091.0
10.61328125,87119.0
10.615234375,87129.0
10.6171875,87101.0
10.619140625,87144.0
10.62109375,87129.0
10.623046875,87159.0
10.625,87147.0
10.626953125,87158.0
10.62890625,87157.0
10.630859375,87140.0
10.6328125,87135.0
10.634765625,87136.0
10.63671875,87136.0
10.638671875,87121.0
10.640625,87120.0
10.642578125,87119.0
10.64453125,87145.0
10.646484375,87122.0
10.6484375,87146.0
10.650390625,87107.0
10.65234375,87080.0
10.654296875,87070.0
10.65625,87084.0
10.658203125,87056.0
10.66015625,87045.0
10.662109375,87047.0
10.6640625,87004.0
10.666015625,86985.0
10.66796875,86986.0
10.669921875,86951.0
10.671875,86935.0
10.673828125,86931.0
10.67578125,86919.0
10.677734375,86867.0
10.6796875,86856.0
10.681640625,86844.0
10.68359375,86830.0
10.685546875,86819.0
10.6875,86788.0
10.689453125,86774.0
10.69140625,86735.0
10.693359375,86730.0
10.6953125,86668.0
10.697265625,86680.0
10.69921875,86658.0
10.701171875,86632.0
10.703125,86612.0
10.705078125,86590.0
10.70703125,86571.0
10.708984375,86550.0
10.7109375,86532.0
10.712890625,86494.0
10.71484375,86487.0
10.716796875,86482.0
10.71875,86472.0
10.720703125,86446.0
10.72265625,86437.0
10.724609375,86422.0
10.7265625,86398.0
10.728515625,86382.0
10.73046875,86369.0
10.732421875,86340.0
10.734375,86342.0
10.736328125,86306.0
10.73828125,86298.0
10.740234375,86276.0
10.7421875,86269.0
10.744140625,86261.0
10.74609375,86220.0
10.748046875,86230.0
10.75,86250.0
10.751953125,86210.0
10.75390625,86167.0
10.755859375,86179.0
10.7578125,86178.0
10.759765625,86173.0
10.76171875,86149.0
10.763671875,86149.0
10.765625,86154.0
10.767578125,86135.0
10.76953125,86122.0
10.771484375,86099.0
10.7734375,86105.0
10.775390625,86085.0
10.77734375,86105.0
10.779296875,86091.0
10.78125,86087.0
10.783203125,86052.0
10.78515625,86058.0
10.787109375,86038.0
10.7890625,86043.0
10.791015625,86025.0
10.79296875,86034.0
10.794921875,86008.0
10.796875,86015.0
10.798828125,86010.0
10.80078125,86007.0
10.802734375,85996.0
10.8046875,85980.0
10.806640625,85995.0
10.80859375,85970.0
10.810546875,85987.0
10.8125,85968.0
10.814453125,85943.0
10.81640625,85938.0
10.818359375,85940.0
10.8203125,85931.0
10.822265625,85947.0
10.82421875,85933.0
10.826171875,85926.0
10.828125,85938.0
10.830078125,85929.0
10.83203125,85918.0
10.833984375,85937.0
10.8359375,85936.0
10.837890625,85910.0
10.83984375,85888.0
10.841796875,85925.0
10.84375,85924.0
10.845703125,85939.0
10.84765625,85932.0
10.849609375,85931.0
10.8515625,85911.0
10.853515625,85944.0
10.85546875,85918.0
10.857421875,85934.0
10.859375,85936.0
10.861328125,85927.0
10.86328125,85937.0
10.865234375,85940.0
10.8671875,85944.0
10.869140625,85964.0
10.87109375,85957.0
10.873046875,85945.0
10.875,85980.0
10.876953125,85960.0
10.87890625,85977.0
10.880859375,86010.0
10.8828125,86025.0
10.884765625,85994.0
10.88671875,86008.0
10.888671875,86029.0
10.890625,86030.0
10.892578125,86011.0
10.89453125,86014.0
10.896484375,86030.0
10.8984375,86025.0
10.900390625,86027.0
10.90234375,86037.0
10.904296875,86046.0
10.90625,86056.0
10.908203125,86072.0
10.91015625,86054.0
10.912109375,86067.0
10.9140625,86088.0
10.916015625,86074.0
10.91796875,86095.0
10.919921875,86123.0
10.921875,86119.0
10.923828125,86099.0
10.92578125,86113.0
10.927734375,86121.0
10.9296875,86131.0
10.931640625,86138.0
10.93359375,86128.0
10.935546875,86122.0
10.9375,86156.0
10.939453125,86153.0
10.94140625,86163.0
10.943359375,86150.0
10.9453125,86155.0
10.947265625,86152.0
10.94921875,86176.0
10.951171875,86181.0
10.953125,86184.0
10.955078125,86179.0
10.95703125,86212.0
10.958984375,86178.0
10.9609375,86198.0
10.962890625,86209.0
10.96484375,86202.0
10.966796875,86196.0
10.96875,86214.0
10.970703125,86201.0
10.97265625,86214.0
10.974609375,86228.0
10.9765625,86202.0
10.978515625,86210.0
10.98046875,86231.0
10.982421875,86241.0
10.984375,86223.0
10.986328125,86262.0
10.98828125,86255.0
10.990234375,86243.0
10.9921875,86271.0
10.994140625,86238.0
10.99609375,86215.0
10.998046875,86257.0
11.0,86285.0
11.001953125,86279.0
11.00390625,86284.0
11.005859375,86295.0
11.0078125,86308.0
11.009765625,86310.0
11.01171875,86340.0
11.013671875,86330.0
11.015625,86310.0
11.017578125,86300.0
11.01953125,86317.0
11.021484375,86331.0
11.0234375,86341.0
11.025390625,86372.0
11.02734375,86352.0
11.029296875,86353.0
11.03125,86383.0
11.033203125,86369.0
11.03515625,86371.0
11.037109375,86371.0
11.0390625,86385.0
11.041015625,86385.0
11.04296875,86391.0
11.044921875,86410.0
11.046875,86409.0
11.048828125,86432.0
11.05078125,86422.0
11.052734375,86451.0
11.0546875,86435.0
11.056640625,86443.0
11.05859375,86459.0
11.060546875,86468.0
11.0625,86474.0
11.064453125,86453.0
11.06640625,86478.0
11.068359375,86488.0
11.0703125,86490.0
11.072265625,86501.0
11.07421875,86511.0
11.076171875,86506.0
11.078125,86521.0
11.080078125,86525.0
11.08203125,86515.0
11.083984375,86557.0
11.0859375,86557.0
11.087890625,86546.0
11.08984375,86558.0
11.091796875,86553.0
11.09375,86556.0
11.095703125,86570.0
11.09765625,86598.0
11.099609375,86578.0
11.1015625,86607.0
11.103515625,86614.0
11.10546875,86619.0
11.107421875,86627.0
11.109375,86646.0
11.111328125,86643.0
11.11328125,86633.0
11.115234375,86644.0
11.1171875,86674.0
11.119140625,86665.0
11.12109375,86692.0
11.123046875,86664.0
11.125,86677.0
11.126953125,86710.0
11.12890625,86726.0
11.130859375,86711.0
11.1328125,86722.0
11.134765625,86740.0
11.13671875,86740.0
11.138671875,86741.0
11.140625,86772.0
11.142578125,86762.0
11.14453125,86772.0
11.146484375,86785.0
11.1484375,86794.0
11.150390625,86808.0
11.15234375,86826.0
11.154296875,86811.0
11.15625,86830.0
11.158203125,86833.0
11.16015625,86822.0
11.162109375,86828.0
11.1640625,86862.0
11.166015625,86855.0
11.16796875,86849.0
11.169921875,86875.0
11.171875,86880.0
11.173828125,86885.0
11.17578125,86872.0
11.177734375,86880.0
11.1796875,86904.0
11.181640625,86909.0
11.18359375,86926.0
11.185546875,86939.0
11.1875,86900.0
11.189453125,86956.0
11.19140625,86933.0
11.193359375,86944.0
11.1953125,86974.0
11.197265625,86972.0
11.19921875,86992.0
11.201171875,86976.0
11.203125,86986.0
11.205078125,86969.0
11.20703125,87024.0
11.208984375,87019.0
11.2109375,87026.0
11.212890625,87031.0
11.21484375,87036.0
11.216796875,87036.0
11.21875,87037.0
11.220703125,87028.0
11.22265625,87031.0
11.224609375,87084.0
11.2265625,87076.0
11.228515625,87057.0
11.23046875,87071.0
11.232421875,87094.0
11.234375,87094.0
11.236328125,87090.0
11.23828125,87121.0
11.240234375,87132.0
11.2421875,87116.0
11.244140625,87129.0
11.24609375,87096.0
11.248046875,87125.0
11.25,87163.0
11.251953125,87156.0
11.25390625,87179.0
11.255859375,87163.0
11.2578125,87190.0
11.259765625,87173.0
11.26171875,87202.0
11.263671875,87189.0
11.265625,87204.0
11.267578125,87220.0
11.26953125,87209.0
11.271484375,87215.0
11.2734375,87244.0
11.275390625,87229.0
11.27734375,87240.0
11.279296875,87241.0
11.28125,87242.0
11.283203125,87259.0
11.28515625,87279.0
11.287109375,87281.0
11.2890625,87284.0
11.291015625,87307.0
11.29296875,87297.0
11.294921875,87278.0
11.296875,87285.0
11.298828125,87309.0
11.30078125,87340.0
11.302734375,87328.0
11.3046875,87338.0
11.306640625,87348.0
11.30859375,87359.0
11.310546875,87353.0
11.3125,87373.0
11.314453125,87386.0
11.31640625,87372.0
11.318359375,87366.0
11.3203125,87381.0
11.322265625,87386.0
11.32421875,87410.0
11.326171875,87436.0
11.328125,87436.0
11.330078125,87446.0
11.33203125,87450.0
11.333984375,87480.0
11.3359375,87466.0
11.337890625,87458.0
11.33984375,87489.0
11.341796875,87473.0
11.34375,87489.0
11.345703125,87496.0
11.34765625,87502.0
11.349609375,87522.0
11.3515625,87543.0
11.353515625,87544.0
11.35546875,87560.0
11.357421875,87553.0
11.359375,87554.0
11.361328125,87582.0
11.36328125,87550.0
11.365234375,87581.0
11.3671875,87588.0
11.369140625,87608.0
11.37109375,87592.0
11.373046875,87609.0
11.375,87618.0
11.376953125,87628.0
11.37890625,87615.0
11.380859375,87622.0
11.3828125,87655.0
11.384765625,87656.0
11.38671875,87649.0
11.388671875,87668.0
11.390625,87684.0
11.392578125,87691.0
11.39453125,87687.0
11.396484375,87694.0
11.3984375,87694.0
11.400390625,87685.0
11.40234375,87736.0
11.404296875,87700.0
11.40625,87713.0
11.408203125,87716.0
11.41015625,87724.0
11.412109375,87714.0
11.4140625,87704.0
11.416015625,87688.0
11.41796875,87717.0
11.419921875,87698.0
11.421875,87691.0
11.423828125,87698.0
11.42578125,87713.0
11.427734375,87661.0
11.4296875,87670.0
11.431640625,87647.0
11.43359375,87666.0
11.435546875,87642.0
11.4375,87622.0
11.439453125,87629.0
11.44140625,87618.0
11.443359375,87593.0
11.4453125,87583.0
11.447265625,87537.0
11.44921875,87555.0
11.451171875,87524.0
11.453125,87529.0
11.455078125,87491.0
11.45703125,87492.0
11.458984375,87463.0
11.4609375,87438.0
11.462890625,87434.0
11.46484375,87422.0
11.466796875,87396.0
11.46875,87390.0
11.470703125,87373.0
11.47265625,87340.0
11.474609375,87324.0
11.4765625,87302.0
11.478515625,87261.0
11.48046875,87274.0
11.482421875,87246.0
11.484375,87202.0
11.486328125,87217.0
11.48828125,87191.0
11.490234375,87184.0
11.4921875,87171.0
11.494140625,87147.0
11.49609375,87118.0
11.498046875,87126.0
11.5,87078.0
11.501953125,87063.0
11.50390625,87047.0
11.505859375,87056.0
11.5078125,87037.0
11.509765625,87032.0
11.51171875,86997.0
11.513671875,86974.0
11.515625,86982.0
11.517578125,86963.0
11.51953125,86963.0
11.521484375,86928.0
11.5234375,86920.0
11.525390625,86916.0
11.52734375,86905.0
11.529296875,86899.0
11.53125,86903.0
11.533203125,86900.0
11.53515625,86856.0
11.537109375,86857.0
11.5390625,86862.0
11.541015625,86851.0
11.54296875,86836.0
11.544921875,86814.0
11.546875,86828.0
11.548828125,86823.0
11.55078125,86803.0
11.552734375,86813.0
11.5546875,86784.0
11.556640625,86798.0
11.55859375,86773.0
11.560546875,86783.0
11.5625,86797.0
11.564453125,86790.0
11.56640625,86781.0
11.568359375,86754.0
11.5703125,86767.0
11.572265625,86764.0
11.57421875,86762.0
11.576171875,86746.0
11.578125,86748.0
11.580078125,86731.0
11.58203125,86738.0
11.583984375,86734.0
11.5859375,86721.0
11.587890625,86726.0
11.58984375,86696.0
11.591796875,86742.0
11.59375,86719.0
11.595703125,86723.0
11.59765625,86699.0
11.599609375,86699.0
11.6015625,86711.0
11.603515625,86683.0
11.60546875,86680.0
11.607421875,86698.0
11.609375,86693.0
11.611328125,86700.0
11.61328125,86715.0
11.615234375,86687.0
11.6171875,86689.0
11.619140625,86689.0
11.62109375,86678.0
11.623046875,86694.0
11.625,86686.0
11.626953125,86704.0
11.62890625,86701.0
11.630859375,86704.0
11.6328125,86701.0
11.634765625,86705.0
11.63671875,86699.0
11.638671875,86700.0
11.640625,86738.0
11.642578125,86735.0
11.64453125,86728.0
11.646484375,86756.0
11.6484375,86734.0
11.650390625,86766.0
11.65234375,86758.0
11.654296875,86758.0
11.65625,86758.0
11.658203125,86728.0
11.66015625,86753.0
11.662109375,86758.0
11.6640625,86762.0
11.666015625,86796.0
11.66796875,86805.0
11.669921875,86826.0
11.671875,86817.0
11.673828125,86840.0
11.67578125,86844.0
11.677734375,86831.0
11.6796875,86822.0
11.681640625,86824.0
11.68359375,86817.0
11.685546875,86843.0
11.6875,86864.0
11.689453125,86868.0
11.69140625,86866.0
11.693359375,86877.0
11.6953125,86872.0
11.697265625,86876.0
11.69921875,86861.0
11.701171875,86894.0
11.703125,86882.0
11.705078125,86908.0
11.70703125,86908.0
11.708984375,86906.0
11.7109375,86915.0
11.712890625,86935.0
11.71484375,86932.0
11.716796875,86943.0
11.71875,86924.0
11.720703125,86940.0
11.72265625,86952.0
11.724609375,86945.0
11.7265625,86959.0
11.728515625,86933.0
11.73046875,86950.0
11.732421875,86951.0
11.734375,86988.0
11.736328125,86962.0
11.73828125,86969.0
11.740234375,86963.0
11.7421875,86972.0
11.744140625,87019.0
11.74609375,86989.0
11.748046875,86971.0
11.75,87003.0
11.751953125,87018.0
11.75390625,87004.0
11.755859375,87003.0
11.7578125,86999.0
11.759765625,86998.0
11.76171875,87047.0
11.763671875,87027.0
11.765625,87015.0
11.767578125,87026.0
11.76953125,87023.0
11.771484375,87049.0
11.7734375,87046.0
11.775390625,87044.0
11.77734375,87061.0
11.779296875,87049.0
11.78125,87067.0
11.783203125,87056.0
11.78515625,87063.0
11.787109375,87061.0
11.7890625,87074.0
11.791015625,87099.0
11.79296875,87084.0
11.794921875,87093.0
11.796875,87091.0
11.798828125,87080.0
11.80078125,87073.0
11.802734375,87109.0
11.8046875,87129.0
11.806640625,87105.0
11.80859375,87110.0
11.810546875,87130.0
11.8125,87129.0
11.814453125,87140.0
11.81640625,87117.0
11.818359375,87133.0
11.8203125,87141.0
11.822265625,87137.0
11.82421875,87178.0
11.826171875,87154.0
11.828125,87182.0
11.830078125,87153.0
11.83203125,87210.0
11.833984375,87190.0
11.8359375,87186.0
11.837890625,87190.0
11.83984375,87191.0
11.841796875,87186.0
11.84375,87234.0
11.845703125,87253.0
11.84765625,87237.0
11.849609375,87233.0
11.8515625,87255.0
11.853515625,87256.0
11.85546875,87240.0
11.857421875,87266.0
11.859375,87249.0
11.861328125,87259.0
11.86328125,87275.0
11.865234375,87310.0
11.8671875,87276.0
11.869140625,87311.0
11.87109375,87330.0
11.873046875,87316.0
11.875,87306.0
11.876953125,87303.0
11.87890625,87314.0
11.880859375,87326.0
11.8828125,87353.0
11.884765625,87347.0
11.88671875,87349.0
11.888671875,87360.0
11.890625,87372.0
11.892578125,87401.0
11.89453125,87376.0
11.896484375,87379.0
11.8984375,87404.0
11.900390625,87389.0
11.90234375,87408.0
11.904296875,87401.0
11.90625,87422.0
11.908203125,87416.0
11.91015625,87401.0
11.912109375,87435.0
11.9140625,87426.0
11.916015625,87441.0
11.91796875,87437.0
11.919921875,87449.0
11.921875,87454.0
11.923828125,87468.0
11.92578125,87480.0
11.927734375,87466.0
11.9296875,87472.0
11.931640625,87484.0
11.93359375,87490.0
11.935546875,87512.0
11.9375,87486.0
11.939453125,87506.0
11.94140625,87498.0
11.943359375,87544.0
11.9453125,87527.0
11.947265625,87542.0
11.94921875,87550.0
11.951171875,87575.0
11.953125,87577.0
11.955078125,87565.0
11.95703125,87586.0
11.958984375,87604.0
11.9609375,87582.0
11.962890625,87598.0
11.96484375,87613.0
11.966796875,87604.0
11.96875,87627.0
11.970703125,87629.0
11.97265625,87633.0
11.974609375,87625.0
11.9765625,87633.0
11.978515625,87637.0
11.98046875,87662.0
11.982421875,87674.0
11.984375,87673.0
11.986328125,87680.0
11.98828125,87671.0
11.990234375,87702.0
11.9921875,87664.0
11.994140625,87690.0
11.99609375,87705.0
11.998046875,87688.0
12.0,87709.0
12.001953125,87695.0
12.00390625,87703.0
12.005859375,87716.0
12.0078125,87718.0
12.009765625,87729.0
12.01171875,87757.0
12.013671875,87757.0
12.015625,87766.0
12.017578125,87782.0
12.01953125,87769.0
12.021484375,87739.0
12.0234375,87764.0
12.025390625,87776.0
12.02734375,87781.0
12.029296875,87782.0
12.03125,87786.0
12.033203125,87808.0
12.03515625,87819.0
12.037109375,87815.0
12.0390625,87834.0
12.041015625,87808.0
12.04296875,87823.0
12.044921875,87833.0
12.046875,87843.0
12.048828125,87840.0
12.05078125,87866.0
12.052734375,87864.0
12.0546875,87873.0
12.056640625,87876.0
12.05859375,87885.0
12.060546875,87890.0
12.0625,87892.0
12.064453125,87917.0
12.06640625,87910.0
12.068359375,87907.0
12.0703125,87924.0
12.072265625,87934.0
12.07421875,87957.0
12.076171875,87959.0
12.078125,87948.0
12.080078125,87945.0
12.08203125,87954.0
12.083984375,87979.0
12.0859375,87961.0
12.087890625,87993.0
12.08984375,88001.0
12.091796875,88020.0
12.09375,88013.0
12.095703125,88028.0
12.09765625,88002.0
12.099609375,87986.0
12.1015625,88030.0
12.103515625,88024.0
12.10546875,88032.0
12.107421875,88054.0
12.109375,88047.0
12.111328125,88044.0
12.11328125,88052.0
12.115234375,88065.0
12.1171875,88073.0
12.119140625,88083.0
12.12109375,88091.0
12.123046875,88111.0
12.125,88089.0
12.126953125,88078.0
12.12890625,88107.0
12.130859375,88105.0
12.1328125,88107.0
12.134765625,88134.0
12.13671875,88135.0
12.138671875,88124.0
12.140625,88152.0
12.142578125,88154.0
12.14453125,88139.0
12.146484375,88153.0
12.1484375,88138.0
12.150390625,88150.0
12.15234375,88170.0
12.154296875,88174.0
12.15625,88176.0
12.158203125,88181.0
12.16015625,88181.0
12.162109375,88182.0
12.1640625,88202.0
12.166015625,88203.0
12.16796875,88218.0
12.169921875,88213.0
12.171875,88238.0
12.173828125,88225.0
12.17578125,88239.0
12.177734375,88270.0
12.1796875,88252.0
12.181640625,88250.0
12.18359375,88268.0
12.185546875,88274.0
12.1875,88290.0
12.189453125,88273.0
12.19140625,88269.0
12.193359375,88275.0
12.1953125,88275.0
12.197265625,88269.0
12.19921875,88278.0
12.201171875,88258.0
12.203125,88284.0
12.205078125,88261.0
12.20703125,88259.0
12.208984375,88276.0
12.2109375,88245.0
12.212890625,88238.0
