time_s,Green,Red,IR
0.0,82968.0,188730.0,188714.0
0.00390625,83014.0,221506.0,221156.0
0.0078125,83037.0,254101.0,229028.0
0.01171875,83067.0,272908.0,229012.0
0.015625,83076.0,272767.0,229021.0
0.01953125,83095.0,272764.0,229007.0
0.0234375,83091.0,272737.0,228980.0
0.02734375,83123.0,272758.0,228991.0
0.03125,83143.0,272744.0,228974.0
0.03515625,83150.0,272732.0,228979.0
0.0390625,83192.0,272720.0,228964.0
0.04296875,83173.0,272735.0,228964.0
0.046875,83204.0,272742.0,228950.0
0.05078125,83217.0,272725.0,228956.0
0.0546875,83235.0,272723.0,228927.0
0.05859375,83279.0,272720.0,228931.0
0.0625,83280.0,272695.0,228918.0
0.06640625,83294.0,272728.0,228945.0
0.0703125,83312.0,272693.0,228933.0
0.07421875,83325.0,272691.0,228910.0
0.078125,83328.0,272671.0,228890.0
0.08203125,83347.0,272702.0,228894.0
0.0859375,83339.0,272701.0,228912.0
0.08984375,83338.0,272664.0,228891.0
0.09375,83356.0,272677.0,228898.0
0.09765625,83379.0,272699.0,228893.0
0.1015625,83390.0,272671.0,228881.0
0.10546875,83402.0,272672.0,228868.0
0.109375,83431.0,272657.0,228871.0
0.11328125,83423.0,272664.0,228878.0
0.1171875,83435.0,272684.0,228884.0
0.12109375,83452.0,272663.0,228870.0
0.125,83467.0,272680.0,228880.0
0.12890625,83449.0,272670.0,228865.0
0.1328125,83470.0,272640.0,228863.0
0.13671875,83450.0,272653.0,228849.0
0.140625,83452.0,272647.0,228859.0
0.14453125,83461.0,272617.0,228850.0
0.1484375,83489.0,272618.0,228833.0
0.15234375,83466.0,272629.0,228823.0
0.15625,83449.0,272600.0,228797.0
0.16015625,83404.0,272620.0,228814.0
0.1640625,83374.0,272657.0,228818.0
0.16796875,83377.0,272615.0,228796.0
0.171875,83324.0,272605.0,228769.0
0.17578125,83314.0,272572.0,228789.0
0.1796875,83286.0,272596.0,228767.0
0.18359375,83222.0,272598.0,228730.0
0.1875,83197.0,272578.0,228732.0
0.19140625,83147.0,272595.0,228687.0
0.1953125,83100.0,272593.0,228714.0
0.19921875,83078.0,272577.0,228701.0
0.203125,83047.0,272585.0,228650.0
0.20703125,82998.0,272586.0,228668.0
0.2109375,82957.0,272541.0,228647.0
0.21484375,82909.0,272574.0,228640.0
0.21875,82890.0,272566.0,228649.0
0.22265625,82814.0,272556.0,228641.0
0.2265625,82806.0,272545.0,228624.0
0.23046875,82761.0,272565.0,228633.0
0.234375,82735.0,272553.0,228610.0
0.23828125,82690.0,272537.0,228607.0
0.2421875,82646.0,272523.0,228584.0
0.24609375,82648.0,272507.0,228603.0
0.25,82620.0,272532.0,228576.0
0.25390625,82600.0,272528.0,228599.0
0.2578125,82570.0,272527.0,228572.0
0.26171875,82543.0,272490.0,228552.0
0.265625,82550.0,272503.0,228566.0
0.26953125,82496.0,272514.0,228563.0
0.2734375,82505.0,272493.0,228537.0
0.27734375,82471.0,272493.0,228542.0
0.28125,82460.0,272517.0,228552.0
0.28515625,82446.0,272494.0,228518.0
0.2890625,82438.0,272507.0,228540.0
0.29296875,82426.0,272491.0,228520.0
0.296875,82398.0,272489.0,228525.0
0.30078125,82398.0,272461.0,228512.0
0.3046875,82386.0,272457.0,228536.0
0.30859375,82373.0,272475.0,228490.0
0.3125,82356.0,272465.0,228516.0
0.31640625,82334.0,272478.0,228509.0
0.3203125,82343.0,272473.0,228531.0
0.32421875,82348.0,272501.0,228532.0
0.328125,82319.0,272484.0,228484.0
0.33203125,82327.0,272475.0,228504.0
0.3359375,82304.0,272474.0,228500.0
0.33984375,82287.0,272467.0,228499.0
0.34375,82317.0,272483.0,228527.0
0.34765625,82304.0,272463.0,228502.0
0.3515625,82313.0,272469.0,228506.0
0.35546875,82332.0,272453.0,228498.0
0.359375,82316.0,272470.0,228492.0
0.36328125,82307.0,272456.0,228495.0
0.3671875,82346.0,272469.0,228510.0
0.37109375,82332.0,272484.0,228518.0
0.375,82358.0,272474.0,228523.0
0.37890625,82366.0,272511.0,228533.0
0.3828125,82326.0,272478.0,228518.0
0.38671875,82382.0,272481.0,228527.0
0.390625,82415.0,272476.0,228532.0
0.39453125,82441.0,272478.0,228523.0
0.3984375,82424.0,272491.0,228557.0
0.40234375,82451.0,272492.0,228568.0
0.40625,82436.0,272461.0,228552.0
0.41015625,82462.0,272488.0,228557.0
0.4140625,82490.0,272501.0,228534.0
0.41796875,82471.0,272497.0,228541.0
0.421875,82498.0,272489.0,228543.0
0.42578125,82465.0,272485.0,228567.0
0.4296875,82492.0,272492.0,228544.0
0.43359375,82508.0,272479.0,228554.0
0.4375,82507.0,272475.0,228568.0
0.44140625,82530.0,272467.0,228538.0
0.4453125,82521.0,272474.0,228552.0
0.44921875,82524.0,272471.0,228531.0
0.453125,82539.0,272493.0,228549.0
0.45703125,82537.0,272477.0,228546.0
0.4609375,82559.0,272459.0,228559.0
0.46484375,82582.0,272469.0,228539.0
0.46875,82553.0,272486.0,228540.0
0.47265625,82569.0,272483.0,228545.0
0.4765625,82577.0,272479.0,228541.0
0.48046875,82588.0,272473.0,228539.0
0.484375,82607.0,272467.0,228537.0
0.48828125,82591.0,272489.0,228546.0
0.4921875,82622.0,272460.0,228527.0
0.49609375,82609.0,272448.0,228537.0
0.5,82594.0,272455.0,228542.0
0.50390625,82613.0,272476.0,228565.0
0.5078125,82642.0,272464.0,228519.0
0.51171875,82614.0,272483.0,228532.0
0.515625,82623.0,272464.0,228529.0
0.51953125,82664.0,272469.0,228549.0
0.5234375,82662.0,272473.0,228551.0
0.52734375,82635.0,272443.0,228522.0
0.53125,82637.0,272465.0,228565.0
0.53515625,82675.0,272480.0,228549.0
0.5390625,82659.0,272478.0,228555.0
0.54296875,82683.0,272467.0,228533.0
0.546875,82709.0,272473.0,228555.0
0.55078125,82688.0,272494.0,228539.0
0.5546875,82719.0,272505.0,228562.0
0.55859375,82704.0,272480.0,228561.0
0.5625,82763.0,272491.0,228549.0
0.56640625,82747.0,272497.0,228580.0
0.5703125,82733.0,272488.0,228550.0
0.57421875,82777.0,272488.0,228560.0
0.578125,82773.0,272466.0,228569.0
0.58203125,82782.0,272504.0,228562.0
0.5859375,82803.0,272490.0,228581.0
0.58984375,82821.0,272475.0,228590.0
0.59375,82823.0,272491.0,228598.0
0.59765625,82839.0,272500.0,228614.0
0.6015625,82860.0,272496.0,228611.0
0.60546875,82865.0,272476.0,228601.0
0.609375,82882.0,272490.0,228608.0
0.61328125,82886.0,272479.0,228614.0
0.6171875,82897.0,272501.0,228618.0
0.62109375,82948.0,272494.0,228613.0
0.625,82921.0,272512.0,228613.0
0.62890625,82950.0,272494.0,228644.0
0.6328125,82981.0,272507.0,228618.0
0.63671875,82964.0,272499.0,228628.0
0.640625,82990.0,272500.0,228607.0
0.64453125,83009.0,272512.0,228614.0
0.6484375,83016.0,272499.0,228627.0
0.65234375,83011.0,272501.0,228627.0
0.65625,83031.0,272500.0,228639.0
0.66015625,83031.0,272465.0,228618.0
0.6640625,83048.0,272500.0,228636.0
0.66796875,83062.0,272515.0,228626.0
0.671875,83062.0,272532.0,228623.0
0.67578125,83093.0,272506.0,228629.0
0.6796875,83074.0,272492.0,228641.0
0.68359375,83107.0,272523.0,228654.0
0.6875,83111.0,272500.0,228660.0
0.69140625,83113.0,272498.0,228645.0
0.6953125,83147.0,272503.0,228627.0
0.69921875,83160.0,272522.0,228643.0
0.703125,83163.0,272509.0,228676.0
0.70703125,83163.0,272522.0,228680.0
0.7109375,83200.0,272523.0,228653.0
0.71484375,83214.0,272520.0,228646.0
0.71875,83196.0,272490.0,228669.0
0.72265625,83210.0,272491.0,228673.0
0.7265625,83208.0,272525.0,228654.0
0.73046875,83236.0,272506.0,228656.0
0.734375,83242.0,272509.0,228669.0
0.73828125,83247.0,272525.0,228664.0
0.7421875,83300.0,272486.0,228678.0
0.74609375,83306.0,272526.0,228681.0
0.75,83300.0,272525.0,228699.0
0.75390625,83288.0,272510.0,228673.0
0.7578125,83321.0,272533.0,228674.0
0.76171875,83313.0,272505.0,228657.0
0.765625,83344.0,272511.0,228679.0
0.76953125,83326.0,272517.0,228678.0
0.7734375,83333.0,272494.0,228663.0
0.77734375,83345.0,272507.0,228668.0
0.78125,83382.0,272503.0,228669.0
0.78515625,83376.0,272529.0,228676.0
0.7890625,83374.0,272517.0,228672.0
0.79296875,83404.0,272515.0,228699.0
0.796875,83401.0,272507.0,228664.0
0.80078125,83433.0,272529.0,228698.0
0.8046875,83439.0,272519.0,228692.0
0.80859375,83450.0,272522.0,228719.0
0.8125,83460.0,272522.0,228698.0
0.81640625,83467.0,272530.0,228691.0
0.8203125,83486.0,272526.0,228721.0
0.82421875,83487.0,272543.0,228717.0
0.828125,83504.0,272530.0,228684.0
0.83203125,83498.0,272541.0,228692.0
0.8359375,83483.0,272529.0,228689.0
0.83984375,83535.0,272520.0,228692.0
0.84375,83521.0,272521.0,228694.0
0.84765625,83531.0,272492.0,228684.0
0.8515625,83556.0,272506.0,228695.0
0.85546875,83548.0,272506.0,228692.0
0.859375,83521.0,272474.0,228693.0
0.86328125,83547.0,272482.0,228697.0
0.8671875,83571.0,272512.0,228678.0
0.87109375,83575.0,272491.0,228702.0
0.875,83602.0,272497.0,228697.0
0.87890625,83597.0,272495.0,228672.0
0.8828125,83615.0,272494.0,228677.0
0.88671875,83613.0,272496.0,228683.0
0.890625,83589.0,272537.0,228696.0
0.89453125,83605.0,272473.0,228667.0
0.8984375,83611.0,272509.0,228671.0
0.90234375,83620.0,272492.0,228669.0
0.90625,83588.0,272499.0,228686.0
0.91015625,83580.0,272469.0,228669.0
0.9140625,83564.0,272503.0,228652.0
0.91796875,83564.0,272505.0,228655.0
0.921875,83538.0,272464.0,228642.0
0.92578125,83538.0,272461.0,228618.0
0.9296875,83485.0,272473.0,228614.0
0.93359375,83464.0,272482.0,228617.0
0.9375,83417.0,272491.0,228607.0
0.94140625,83381.0,272490.0,228592.0
0.9453125,83366.0,272466.0,228578.0
0.94921875,83308.0,272479.0,228562.0
0.953125,83273.0,272473.0,228552.0
0.95703125,83203.0,272457.0,228547.0
0.9609375,83183.0,272479.0,228543.0
0.96484375,83149.0,272466.0,228529.0
0.96875,83095.0,272448.0,228523.0
0.97265625,83035.0,272443.0,228513.0
0.9765625,83001.0,272444.0,228488.0
0.98046875,82950.0,272441.0,228470.0
0.984375,82942.0,272446.0,228501.0
0.98828125,82903.0,272438.0,228469.0
0.9921875,82894.0,272413.0,228467.0
0.99609375,82856.0,272434.0,228478.0
1.0,82809.0,272450.0,228458.0
1.00390625,82814.0,272435.0,228463.0
1.0078125,82774.0,272434.0,228464.0
1.01171875,82736.0,272423.0,228466.0
1.015625,82733.0,272417.0,228475.0
1.01953125,82710.0,272429.0,228470.0
1.0234375,82699.0,272428.0,228464.0
1.02734375,82676.0,272432.0,228455.0
1.03125,82653.0,272388.0,228439.0
1.03515625,82669.0,272431.0,228456.0
1.0390625,82631.0,272433.0,228445.0
1.04296875,82637.0,272425.0,228429.0
1.046875,82622.0,272409.0,228439.0
1.05078125,82607.0,272384.0,228422.0
1.0546875,82606.0,272382.0,228419.0
1.05859375,82576.0,272402.0,228416.0
1.0625,82559.0,272392.0,228433.0
1.06640625,82563.0,272403.0,228433.0
1.0703125,82555.0,272374.0,228424.0
1.07421875,82532.0,272403.0,228428.0
1.078125,82563.0,272402.0,228437.0
1.08203125,82541.0,272396.0,228432.0
1.0859375,82522.0,272386.0,228410.0
1.08984375,82511.0,272406.0,228408.0
1.09375,82507.0,272367.0,228428.0
1.09765625,82542.0,272404.0,228435.0
1.1015625,82529.0,272394.0,228429.0
1.10546875,82548.0,272394.0,228424.0
1.109375,82534.0,272380.0,228423.0
1.11328125,82538.0,272413.0,228420.0
1.1171875,82547.0,272390.0,228451.0
1.12109375,82556.0,272406.0,228437.0
1.125,82533.0,272390.0,228443.0
1.12890625,82560.0,272413.0,228442.0
1.1328125,82568.0,272399.0,228428.0
1.13671875,82592.0,272402.0,228446.0
1.140625,82589.0,272416.0,228433.0
1.14453125,82616.0,272431.0,228456.0
1.1484375,82609.0,272401.0,228449.0
1.15234375,82633.0,272404.0,228452.0
1.15625,82662.0,272417.0,228470.0
1.16015625,82669.0,272399.0,228460.0
1.1640625,82662.0,272396.0,228459.0
1.16796875,82687.0,272404.0,228464.0
1.171875,82679.0,272417.0,228465.0
1.17578125,82658.0,272398.0,228480.0
1.1796875,82701.0,272417.0,228487.0
1.18359375,82717.0,272424.0,228471.0
1.1875,82717.0,272429.0,228462.0
1.19140625,82742.0,272417.0,228452.0
1.1953125,82725.0,272419.0,228482.0
1.19921875,82746.0,272433.0,228473.0
1.203125,82728.0,272416.0,228486.0
1.20703125,82746.0,272392.0,228472.0
1.2109375,82770.0,272407.0,228467.0
1.21484375,82744.0,272384.0,228466.0
1.21875,82782.0,272412.0,228453.0
1.22265625,82761.0,272408.0,228476.0
1.2265625,82763.0,272407.0,228459.0
1.23046875,82753.0,272382.0,228468.0
1.234375,82758.0,272395.0,228459.0
1.23828125,82760.0,272402.0,228480.0
1.2421875,82752.0,272409.0,228452.0
1.24609375,82762.0,272406.0,228476.0
1.25,82764.0,272401.0,228450.0
1.25390625,82778.0,272391.0,228459.0
1.2578125,82769.0,272401.0,228455.0
1.26171875,82767.0,272387.0,228457.0
1.265625,82760.0,272398.0,228447.0
1.26953125,82771.0,272401.0,228469.0
1.2734375,82766.0,272405.0,228451.0
1.27734375,82736.0,272387.0,228456.0
1.28125,82736.0,272414.0,228432.0
1.28515625,82735.0,272375.0,228434.0
1.2890625,82722.0,272370.0,228427.0
1.29296875,82726.0,272368.0,228434.0
1.296875,82722.0,272349.0,228445.0
1.30078125,82706.0,272379.0,228450.0
1.3046875,82704.0,272378.0,228424.0
1.30859375,82695.0,272377.0,228422.0
1.3125,82681.0,272387.0,228430.0
1.31640625,82671.0,272357.0,228428.0
1.3203125,82679.0,272375.0,228443.0
1.32421875,82711.0,272335.0,228431.0
1.328125,82701.0,272341.0,228433.0
1.33203125,82697.0,272401.0,228445.0
1.3359375,82714.0,272361.0,228438.0
1.33984375,82707.0,272365.0,228447.0
1.34375,82729.0,272346.0,228464.0
1.34765625,82759.0,272355.0,228471.0
1.3515625,82734.0,272360.0,228461.0
1.35546875,82758.0,272361.0,228485.0
1.359375,82779.0,272386.0,228473.0
1.36328125,82795.0,272400.0,228484.0
1.3671875,82795.0,272385.0,228500.0
1.37109375,82818.0,272387.0,228500.0
1.375,82811.0,272402.0,228503.0
1.37890625,82813.0,272396.0,228511.0
1.3828125,82827.0,272415.0,228520.0
1.38671875,82859.0,272413.0,228505.0
1.390625,82850.0,272424.0,228539.0
1.39453125,82873.0,272419.0,228527.0
1.3984375,82886.0,272427.0,228521.0
1.40234375,82892.0,272412.0,228554.0
1.40625,82905.0,272410.0,228548.0
1.41015625,82923.0,272412.0,228531.0
1.4140625,82911.0,272431.0,228554.0
1.41796875,82940.0,272404.0,228553.0
1.421875,82953.0,272419.0,228531.0
1.42578125,82939.0,272418.0,228536.0
1.4296875,82966.0,272416.0,228541.0
1.43359375,82975.0,272402.0,228541.0
1.4375,82970.0,272413.0,228533.0
1.44140625,82996.0,272392.0,228529.0
1.4453125,82998.0,272404.0,228538.0
1.44921875,82995.0,272399.0,228544.0
1.453125,82990.0,272411.0,228555.0
1.45703125,83036.0,272417.0,228534.0
1.4609375,83026.0,272433.0,228537.0
1.46484375,83022.0,272426.0,228538.0
1.46875,83018.0,272414.0,228540.0
1.47265625,83026.0,272390.0,228546.0
1.4765625,83056.0,272401.0,228536.0
1.48046875,83054.0,272410.0,228542.0
1.484375,83084.0,272376.0,228532.0
1.48828125,83051.0,272396.0,228553.0
1.4921875,83089.0,272412.0,228540.0
1.49609375,83066.0,272398.0,228545.0
1.5,83093.0,272404.0,228522.0
1.50390625,83086.0,272408.0,228546.0
1.5078125,83130.0,272384.0,228539.0
1.51171875,83124.0,272422.0,228545.0
1.515625,83128.0,272432.0,228522.0
1.51953125,83132.0,272413.0,228543.0
1.5234375,83127.0,272371.0,228542.0
1.52734375,83144.0,272405.0,228556.0
1.53125,83162.0,272367.0,228548.0
1.53515625,83142.0,272404.0,228532.0
1.5390625,83152.0,272390.0,228550.0
1.54296875,83147.0,272383.0,228546.0
1.546875,83167.0,272397.0,228541.0
1.55078125,83194.0,272376.0,228533.0
1.5546875,83164.0,272421.0,228554.0
1.55859375,83191.0,272410.0,228550.0
1.5625,83205.0,272407.0,228532.0
1.56640625,83214.0,272382.0,228555.0
1.5703125,83225.0,272389.0,228542.0
1.57421875,83230.0,272404.0,228556.0
1.578125,83236.0,272408.0,228563.0
1.58203125,83226.0,272414.0,228565.0
1.5859375,83235.0,272383.0,228550.0
1.58984375,83233.0,272375.0,228555.0
1.59375,83254.0,272406.0,228568.0
1.59765625,83247.0,272384.0,228551.0
1.6015625,83275.0,272375.0,228543.0
1.60546875,83273.0,272387.0,228551.0
1.609375,83284.0,272389.0,228571.0
1.61328125,83299.0,272402.0,228565.0
1.6171875,83312.0,272383.0,228535.0
1.62109375,83316.0,272377.0,228573.0
1.625,83315.0,272395.0,228549.0
1.62890625,83291.0,272414.0,228566.0
1.6328125,83282.0,272380.0,228549.0
1.63671875,83296.0,272401.0,228550.0
1.640625,83304.0,272373.0,228552.0
1.64453125,83294.0,272404.0,228549.0
1.6484375,83309.0,272375.0,228537.0
1.65234375,83292.0,272375.0,228536.0
1.65625,83268.0,272365.0,228530.0
1.66015625,83221.0,272397.0,228521.0
1.6640625,83226.0,272386.0,228511.0
1.66796875,83181.0,272386.0,228512.0
1.671875,83161.0,272393.0,228499.0
1.67578125,83130.0,272353.0,228469.0
1.6796875,83117.0,272383.0,228474.0
1.68359375,83080.0,272386.0,228481.0
1.6875,83032.0,272348.0,228468.0
1.69140625,82964.0,272373.0,228450.0
1.6953125,82938.0,272364.0,228440.0
1.69921875,82895.0,272388.0,228435.0
1.703125,82870.0,272349.0,228412.0
1.70703125,82803.0,272352.0,228414.0
1.7109375,82782.0,272376.0,228409.0
1.71484375,82766.0,272363.0,228398.0
1.71875,82742.0,272340.0,228392.0
1.72265625,82683.0,272344.0,228401.0
1.7265625,82648.0,272359.0,228393.0
1.73046875,82617.0,272334.0,228400.0
1.734375,82567.0,272361.0,228377.0
1.73828125,82542.0,272340.0,228367.0
1.7421875,82538.0,272325.0,228366.0
1.74609375,82530.0,272359.0,228377.0
1.75,82489.0,272326.0,228364.0
1.75390625,82449.0,272330.0,228366.0
1.7578125,82448.0,272340.0,228344.0
1.76171875,82424.0,272339.0,228360.0
1.765625,82407.0,272333.0,228350.0
1.76953125,82390.0,272334.0,228361.0
1.7734375,82371.0,272346.0,228349.0
1.77734375,82356.0,272334.0,228341.0
1.78125,82349.0,272347.0,228345.0
1.78515625,82336.0,272328.0,228348.0
1.7890625,82334.0,272321.0,228339.0
1.79296875,82316.0,272331.0,228337.0
1.796875,82312.0,272319.0,228350.0
1.80078125,82298.0,272322.0,228336.0
1.8046875,82328.0,272297.0,228339.0
1.80859375,82296.0,272333.0,228315.0
1.8125,82295.0,272347.0,228339.0
1.81640625,82271.0,272314.0,228318.0
1.8203125,82254.0,272308.0,228331.0
1.82421875,82311.0,272302.0,228317.0
1.828125,82257.0,272308.0,228340.0
1.83203125,82248.0,272339.0,228341.0
1.8359375,82250.0,272298.0,228315.0
1.83984375,82259.0,272297.0,228327.0
1.84375,82277.0,272304.0,228333.0
1.84765625,82261.0,272298.0,228345.0
1.8515625,82290.0,272293.0,228327.0
1.85546875,82278.0,272294.0,228342.0
1.859375,82255.0,272306.0,228345.0
1.86328125,82275.0,272302.0,228342.0
1.8671875,82299.0,272295.0,228338.0
1.87109375,82304.0,272305.0,228356.0
1.875,82326.0,272303.0,228360.0
1.87890625,82332.0,272328.0,228367.0
1.8828125,82339.0,272330.0,228346.0
1.88671875,82358.0,272335.0,228351.0
1.890625,82361.0,272283.0,228352.0
1.89453125,82371.0,272326.0,228357.0
1.8984375,82375.0,272304.0,228377.0
1.90234375,82383.0,272335.0,228364.0
1.90625,82382.0,272307.0,228366.0
1.91015625,82395.0,272302.0,228373.0
1.9140625,82404.0,272301.0,228362.0
1.91796875,82426.0,272311.0,228366.0
1.921875,82410.0,272321.0,228358.0
1.92578125,82420.0,272320.0,228382.0
1.9296875,82417.0,272285.0,228367.0
1.93359375,82407.0,272289.0,228362.0
1.9375,82416.0,272301.0,228349.0
1.94140625,82432.0,272313.0,228358.0
1.9453125,82451.0,272309.0,228347.0
1.94921875,82438.0,272296.0,228360.0
1.953125,82449.0,272305.0,228360.0
1.95703125,82393.0,272324.0,228371.0
1.9609375,82420.0,272301.0,228342.0
1.96484375,82446.0,272300.0,228339.0
1.96875,82433.0,272291.0,228363.0
1.97265625,82437.0,272304.0,228358.0
1.9765625,82442.0,272293.0,228366.0
1.98046875,82432.0,272306.0,228392.0
1.984375,82453.0,272303.0,228348.0
1.98828125,82440.0,272298.0,228349.0
1.9921875,82471.0,272293.0,228375.0
1.99609375,82427.0,272327.0,228355.0
2.0,82445.0,272304.0,228373.0
2.00390625,82463.0,272297.0,228350.0
2.0078125,82484.0,272312.0,228369.0
2.01171875,82450.0,272310.0,228366.0
2.015625,82470.0,272309.0,228382.0
2.01953125,82497.0,272319.0,228393.0
2.0234375,82485.0,272304.0,228387.0
2.02734375,82518.0,272329.0,228379.0
2.03125,82485.0,272306.0,228391.0
2.03515625,82504.0,272330.0,228381.0
2.0390625,82501.0,272340.0,228392.0
2.04296875,82522.0,272325.0,228383.0
2.046875,82521.0,272322.0,228403.0
2.05078125,82552.0,272304.0,228414.0
2.0546875,82548.0,272315.0,228396.0
2.05859375,82541.0,272329.0,228405.0
2.0625,82567.0,272304.0,228404.0
2.06640625,82593.0,272316.0,228393.0
2.0703125,82598.0,272303.0,228431.0
2.07421875,82576.0,272303.0,228412.0
2.078125,82615.0,272328.0,228399.0
2.08203125,82604.0,272321.0,228399.0
2.0859375,82603.0,272349.0,228400.0
2.08984375,82641.0,272314.0,228399.0
2.09375,82609.0,272290.0,228412.0
2.09765625,82651.0,272304.0,228392.0
2.1015625,82629.0,272311.0,228399.0
2.10546875,82658.0,272332.0,228409.0
2.109375,82663.0,272329.0,228388.0
2.11328125,82671.0,272316.0,228407.0
2.1171875,82698.0,272332.0,228405.0
2.12109375,82690.0,272322.0,228432.0
2.125,82719.0,272329.0,228410.0
2.12890625,82703.0,272339.0,228418.0
2.1328125,82747.0,272326.0,228428.0
2.13671875,82747.0,272345.0,228422.0
2.140625,82747.0,272320.0,228427.0
2.14453125,82745.0,272320.0,228418.0
2.1484375,82763.0,272338.0,228431.0
2.15234375,82766.0,272330.0,228444.0
2.15625,82779.0,272316.0,228436.0
2.16015625,82781.0,272339.0,228441.0
2.1640625,82814.0,272313.0,228457.0
2.16796875,82824.0,272336.0,228461.0
2.171875,82807.0,272334.0,228439.0
2.17578125,82833.0,272323.0,228445.0
2.1796875,82834.0,272326.0,228435.0
2.18359375,82842.0,272313.0,228458.0
2.1875,82850.0,272293.0,228428.0
2.19140625,82844.0,272310.0,228434.0
2.1953125,82853.0,272296.0,228434.0
2.19921875,82849.0,272322.0,228442.0
2.203125,82867.0,272317.0,228441.0
2.20703125,82880.0,272309.0,228460.0
2.2109375,82857.0,272314.0,228432.0
2.21484375,82894.0,272290.0,228437.0
2.21875,82898.0,272308.0,228452.0
2.22265625,82876.0,272307.0,228435.0
2.2265625,82908.0,272311.0,228429.0
2.23046875,82905.0,272303.0,228431.0
2.234375,82925.0,272317.0,228435.0
2.23828125,82944.0,272303.0,228452.0
2.2421875,82924.0,272319.0,228441.0
2.24609375,82944.0,272291.0,228440.0
2.25,82956.0,272315.0,228441.0
2.25390625,82957.0,272328.0,228464.0
2.2578125,82955.0,272305.0,228446.0
2.26171875,83002.0,272323.0,228451.0
2.265625,82982.0,272317.0,228452.0
2.26953125,83001.0,272328.0,228457.0
2.2734375,83014.0,272331.0,228466.0
2.27734375,83001.0,272307.0,228468.0
2.28125,83017.0,272332.0,228471.0
2.28515625,83019.0,272348.0,228470.0
2.2890625,83022.0,272333.0,228472.0
2.29296875,83031.0,272338.0,228479.0
2.296875,83051.0,272326.0,228483.0
2.30078125,83064.0,272334.0,228477.0
2.3046875,83059.0,272330.0,228501.0
2.30859375,83095.0,272332.0,228471.0
2.3125,83092.0,272340.0,228495.0
2.31640625,83089.0,272326.0,228502.0
2.3203125,83097.0,272356.0,228484.0
2.32421875,83105.0,272327.0,228494.0
2.328125,83132.0,272324.0,228471.0
2.33203125,83124.0,272309.0,228501.0
2.3359375,83141.0,272319.0,228510.0
2.33984375,83135.0,272326.0,228497.0
2.34375,83114.0,272330.0,228483.0
2.34765625,83119.0,272306.0,228495.0
2.3515625,83131.0,272341.0,228495.0
2.35546875,83112.0,272295.0,228460.0
2.359375,83128.0,272334.0,228474.0
2.36328125,83078.0,272291.0,228468.0
2.3671875,83111.0,272306.0,228457.0
2.37109375,83068.0,272315.0,228447.0
2.375,83038.0,272315.0,228441.0
2.37890625,83011.0,272335.0,228423.0
2.3828125,82982.0,272321.0,228412.0
2.38671875,82930.0,272305.0,228414.0
2.390625,82899.0,272306.0,228411.0
2.39453125,82868.0,272282.0,228390.0
2.3984375,82828.0,272300.0,228401.0
2.40234375,82781.0,272285.0,228392.0
2.40625,82755.0,272263.0,228380.0
2.41015625,82713.0,272269.0,228365.0
2.4140625,82648.0,272271.0,228373.0
2.41796875,82609.0,272268.0,228342.0
2.421875,82581.0,272295.0,228326.0
2.42578125,82520.0,272279.0,228328.0
2.4296875,82479.0,272238.0,228319.0
2.43359375,82461.0,272270.0,228336.0
2.4375,82429.0,272252.0,228326.0
2.44140625,82381.0,272289.0,228310.0
2.4453125,82336.0,272250.0,228304.0
2.44921875,82318.0,272262.0,228299.0
2.453125,82267.0,272251.0,228288.0
2.45703125,82235.0,272242.0,228304.0
2.4609375,82198.0,272248.0,228303.0
2.46484375,82198.0,272271.0,228283.0
2.46875,82159.0,272265.0,228283.0
2.47265625,82143.0,272240.0,228272.0
2.4765625,82125.0,272238.0,228276.0
2.48046875,82079.0,272216.0,228289.0
2.484375,82084.0,272248.0,228274.0
2.48828125,82053.0,272234.0,228286.0
2.4921875,82040.0,272240.0,228251.0
2.49609375,82031.0,272253.0,228276.0
2.5,82007.0,272259.0,228276.0
2.50390625,82004.0,272227.0,228273.0
2.5078125,81992.0,272222.0,228245.0
2.51171875,81989.0,272224.0,228262.0
2.515625,81968.0,272252.0,228258.0
2.51953125,81965.0,272230.0,228277.0
2.5234375,81941.0,272238.0,228254.0
2.52734375,81925.0,272245.0,228255.0
2.53125,81941.0,272244.0,228246.0
2.53515625,81900.0,272213.0,228252.0
2.5390625,81921.0,272212.0,228259.0
2.54296875,81931.0,272228.0,228262.0
2.546875,81878.0,272222.0,228262.0
2.55078125,81906.0,272208.0,228247.0
2.5546875,81873.0,272220.0,228245.0
2.55859375,81874.0,272215.0,228264.0
2.5625,81879.0,272235.0,228262.0
2.56640625,81879.0,272262.0,228255.0
2.5703125,81874.0,272198.0,228268.0
2.57421875,81896.0,272198.0,228270.0
2.578125,81896.0,272216.0,228270.0
2.58203125,81906.0,272229.0,228291.0
2.5859375,81918.0,272226.0,228267.0
2.58984375,81926.0,272235.0,228268.0
2.59375,81970.0,272243.0,228291.0
2.59765625,81945.0,272243.0,228294.0
2.6015625,81945.0,272228.0,228301.0
2.60546875,81965.0,272239.0,228295.0
2.609375,81966.0,272237.0,228299.0
2.61328125,81991.0,272244.0,228312.0
2.6171875,81992.0,272227.0,228322.0
2.62109375,81994.0,272245.0,228297.0
2.625,81983.0,272248.0,228307.0
2.62890625,82005.0,272247.0,228327.0
2.6328125,82023.0,272256.0,228323.0
2.63671875,82002.0,272240.0,228294.0
2.640625,82027.0,272227.0,228307.0
2.64453125,82019.0,272240.0,228298.0
2.6484375,82037.0,272229.0,228307.0
2.65234375,82058.0,272223.0,228304.0
2.65625,82042.0,272200.0,228323.0
2.66015625,82037.0,272226.0,228302.0
2.6640625,82062.0,272250.0,228305.0
2.66796875,82039.0,272215.0,228308.0
2.671875,82062.0,272205.0,228297.0
2.67578125,82052.0,272183.0,228295.0
2.6796875,82035.0,272232.0,228298.0
2.68359375,82043.0,272217.0,228288.0
2.6875,82068.0,272240.0,228290.0
2.69140625,82047.0,272199.0,228302.0
2.6953125,82068.0,272203.0,228295.0
2.69921875,82058.0,272238.0,228295.0
2.703125,82067.0,272208.0,228297.0
2.70703125,82058.0,272202.0,228290.0
2.7109375,82077.0,272213.0,228303.0
2.71484375,82043.0,272213.0,228303.0
2.71875,82085.0,272241.0,228282.0
2.72265625,82088.0,272206.0,228281.0
2.7265625,82085.0,272230.0,228279.0
2.73046875,82083.0,272217.0,228304.0
2.734375,82103.0,272223.0,228299.0
2.73828125,82111.0,272218.0,228305.0
2.7421875,82094.0,272228.0,228309.0
2.74609375,82089.0,272209.0,228277.0
2.75,82103.0,272231.0,228315.0
2.75390625,82107.0,272224.0,228323.0
2.7578125,82116.0,272202.0,228317.0
2.76171875,82123.0,272199.0,228309.0
2.765625,82132.0,272221.0,228321.0
2.76953125,82145.0,272215.0,228327.0
2.7734375,82154.0,272213.0,228341.0
2.77734375,82152.0,272268.0,228323.0
2.78125,82177.0,272228.0,228337.0
2.78515625,82198.0,272235.0,228338.0
2.7890625,82207.0,272237.0,228329.0
2.79296875,82236.0,272240.0,228327.0
2.796875,82230.0,272230.0,228344.0
2.80078125,82221.0,272217.0,228352.0
2.8046875,82216.0,272228.0,228355.0
2.80859375,82237.0,272265.0,228325.0
2.8125,82248.0,272229.0,228356.0
2.81640625,82254.0,272238.0,228370.0
2.8203125,82288.0,272236.0,228332.0
2.82421875,82267.0,272229.0,228358.0
2.828125,82296.0,272234.0,228346.0
2.83203125,82300.0,272259.0,228366.0
2.8359375,82301.0,272254.0,228354.0
2.83984375,82326.0,272240.0,228348.0
2.84375,82320.0,272234.0,228353.0
2.84765625,82341.0,272243.0,228344.0
2.8515625,82324.0,272267.0,228373.0
2.85546875,82369.0,272243.0,228362.0
2.859375,82392.0,272267.0,228353.0
2.86328125,82384.0,272254.0,228366.0
2.8671875,82379.0,272253.0,228387.0
2.87109375,82407.0,272252.0,228366.0
2.875,82410.0,272246.0,228388.0
2.87890625,82405.0,272248.0,228358.0
2.8828125,82399.0,272259.0,228364.0
2.88671875,82449.0,272257.0,228392.0
2.890625,82439.0,272260.0,228379.0
2.89453125,82454.0,272258.0,228381.0
2.8984375,82469.0,272271.0,228379.0
2.90234375,82445.0,272250.0,228404.0
2.90625,82470.0,272268.0,228387.0
2.91015625,82498.0,272244.0,228370.0
2.9140625,82486.0,272263.0,228378.0
2.91796875,82492.0,272292.0,228389.0
2.921875,82518.0,272255.0,228389.0
2.92578125,82517.0,272239.0,228383.0
2.9296875,82527.0,272249.0,228388.0
2.93359375,82540.0,272261.0,228401.0
2.9375,82561.0,272258.0,228389.0
2.94140625,82558.0,272259.0,228396.0
2.9453125,82575.0,272260.0,228391.0
2.94921875,82579.0,272248.0,228387.0
2.953125,82576.0,272269.0,228409.0
2.95703125,82603.0,272262.0,228424.0
2.9609375,82601.0,272253.0,228427.0
2.96484375,82627.0,272267.0,228441.0
2.96875,82608.0,272265.0,228427.0
2.97265625,82636.0,272263.0,228408.0
2.9765625,82649.0,272270.0,228425.0
2.98046875,82655.0,272269.0,228448.0
2.984375,82659.0,272273.0,228432.0
2.98828125,82681.0,272268.0,228436.0
2.9921875,82672.0,272282.0,228427.0
2.99609375,82690.0,272246.0,228430.0
3.0,82697.0,272283.0,228431.0
3.00390625,82712.0,272301.0,228439.0
3.0078125,82735.0,272247.0,228447.0
3.01171875,82724.0,272279.0,228440.0
3.015625,82734.0,272286.0,228433.0
3.01953125,82761.0,272272.0,228453.0
3.0234375,82779.0,272267.0,228433.0
3.02734375,82780.0,272260.0,228429.0
3.03125,82798.0,272282.0,228452.0
3.03515625,82804.0,272294.0,228432.0
3.0390625,82814.0,272292.0,228459.0
3.04296875,82808.0,272295.0,228467.0
3.046875,82835.0,272298.0,228452.0
3.05078125,82842.0,272274.0,228457.0
3.0546875,82859.0,272297.0,228456.0
3.05859375,82880.0,272303.0,228473.0
3.0625,82862.0,272282.0,228452.0
3.06640625,82895.0,272271.0,228448.0
3.0703125,82909.0,272300.0,228443.0
3.07421875,82917.0,272272.0,228454.0
3.078125,82900.0,272301.0,228468.0
3.08203125,82936.0,272299.0,228475.0
3.0859375,82911.0,272276.0,228463.0
3.08984375,82923.0,272300.0,228452.0
3.09375,82945.0,272313.0,228468.0
3.09765625,82937.0,272292.0,228479.0
3.1015625,82919.0,272306.0,228467.0
3.10546875,82919.0,272297.0,228442.0
3.109375,82914.0,272288.0,228445.0
3.11328125,82912.0,272323.0,228419.0
3.1171875,82899.0,272292.0,228425.0
3.12109375,82889.0,272306.0,228420.0
3.125,82869.0,272277.0,228417.0
3.12890625,82828.0,272274.0,228407.0
3.1328125,82817.0,272284.0,228384.0
3.13671875,82752.0,272268.0,228406.0
3.140625,82731.0,272294.0,228393.0
3.14453125,82685.0,272277.0,228387.0
3.1484375,82628.0,272268.0,228367.0
3.15234375,82588.0,272260.0,228350.0
3.15625,82521.0,272245.0,228348.0
3.16015625,82509.0,272269.0,228325.0
3.1640625,82445.0,272256.0,228336.0
3.16796875,82416.0,272245.0,228321.0
3.171875,82360.0,272271.0,228316.0
3.17578125,82361.0,272259.0,228288.0
3.1796875,82279.0,272253.0,228297.0
3.18359375,82236.0,272241.0,228268.0
3.1875,82203.0,272226.0,228286.0
3.19140625,82160.0,272272.0,228288.0
3.1953125,82138.0,272235.0,228264.0
3.19921875,82093.0,272246.0,228292.0
3.203125,82058.0,272247.0,228270.0
3.20703125,82024.0,272226.0,228264.0
3.2109375,82005.0,272224.0,228262.0
3.21484375,81994.0,272239.0,228263.0
3.21875,81976.0,272248.0,228275.0
3.22265625,81948.0,272234.0,228263.0
3.2265625,81916.0,272243.0,228261.0
3.23046875,81926.0,272239.0,228258.0
3.234375,81886.0,272194.0,228258.0
3.23828125,81890.0,272248.0,228247.0
3.2421875,81854.0,272196.0,228274.0
3.24609375,81831.0,272254.0,228264.0
3.25,81822.0,272219.0,228281.0
3.25390625,81814.0,272213.0,228271.0
3.2578125,81818.0,272234.0,228262.0
3.26171875,81819.0,272230.0,228287.0
3.265625,81808.0,272256.0,228277.0
3.26953125,81780.0,272239.0,228270.0
3.2734375,81782.0,272240.0,228265.0
3.27734375,81760.0,272242.0,228287.0
3.28125,81740.0,272245.0,228286.0
3.28515625,81758.0,272229.0,228266.0
3.2890625,81764.0,272235.0,228277.0
3.29296875,81759.0,272213.0,228276.0
3.296875,81745.0,272239.0,228280.0
3.30078125,81749.0,272247.0,228266.0
3.3046875,81705.0,272242.0,228276.0
3.30859375,81712.0,272232.0,228255.0
3.3125,81731.0,272221.0,228257.0
3.31640625,81741.0,272237.0,228269.0
3.3203125,81722.0,272225.0,228266.0
3.32421875,81737.0,272219.0,228275.0
3.328125,81759.0,272225.0,228283.0
3.33203125,81768.0,272210.0,228286.0
3.3359375,81764.0,272233.0,228301.0
3.33984375,81776.0,272210.0,228303.0
3.34375,81777.0,272249.0,228300.0
3.34765625,81788.0,272230.0,228302.0
3.3515625,81820.0,272248.0,228289.0
3.35546875,81828.0,272224.0,228307.0
3.359375,81813.0,272230.0,228311.0
3.36328125,81829.0,272231.0,228311.0
3.3671875,81837.0,272248.0,228311.0
3.37109375,81872.0,272241.0,228318.0
3.375,81876.0,272235.0,228309.0
3.37890625,81899.0,272240.0,228310.0
3.3828125,81887.0,272242.0,228346.0
3.38671875,81886.0,272215.0,228325.0
3.390625,81905.0,272252.0,228322.0
3.39453125,81922.0,272238.0,228313.0
3.3984375,81930.0,272232.0,228313.0
3.40234375,81913.0,272234.0,228334.0
3.40625,81932.0,272221.0,228327.0
3.41015625,81924.0,272241.0,228338.0
3.4140625,81915.0,272207.0,228323.0
3.41796875,81952.0,272224.0,228310.0
3.421875,81944.0,272229.0,228307.0
3.42578125,81936.0,272228.0,228329.0
3.4296875,81946.0,272204.0,228283.0
3.43359375,81977.0,272232.0,228303.0
3.4375,81954.0,272217.0,228322.0
3.44140625,81956.0,272244.0,228295.0
3.4453125,81952.0,272240.0,228309.0
3.44921875,81946.0,272237.0,228311.0
3.453125,81972.0,272232.0,228325.0
3.45703125,81965.0,272244.0,228334.0
3.4609375,81977.0,272238.0,228331.0
3.46484375,81956.0,272215.0,228328.0
3.46875,81971.0,272242.0,228307.0
3.47265625,81969.0,272227.0,228332.0
3.4765625,82000.0,272240.0,228299.0
3.48046875,82024.0,272239.0,228320.0
3.484375,82002.0,272245.0,228313.0
3.48828125,82009.0,272238.0,228320.0
3.4921875,82038.0,272231.0,228330.0
3.49609375,82034.0,272218.0,228323.0
3.5,82051.0,272246.0,228335.0
3.50390625,82049.0,272237.0,228325.0
3.5078125,82038.0,272221.0,228343.0
3.51171875,82063.0,272238.0,228338.0
3.515625,82060.0,272229.0,228329.0
3.51953125,82090.0,272216.0,228329.0
3.5234375,82080.0,272247.0,228346.0
3.52734375,82097.0,272240.0,228338.0
3.53125,82120.0,272243.0,228336.0
3.53515625,82126.0,272227.0,228331.0
3.5390625,82148.0,272259.0,228341.0
3.54296875,82137.0,272234.0,228362.0
3.546875,82138.0,272227.0,228353.0
3.55078125,82171.0,272246.0,228347.0
3.5546875,82160.0,272251.0,228357.0
3.55859375,82201.0,272258.0,228353.0
3.5625,82196.0,272227.0,228373.0
3.56640625,82207.0,272222.0,228348.0
3.5703125,82228.0,272248.0,228378.0
3.57421875,82236.0,272245.0,228388.0
3.578125,82215.0,272260.0,228391.0
3.58203125,82267.0,272267.0,228379.0
3.5859375,82263.0,272270.0,228387.0
3.58984375,82283.0,272270.0,228398.0
3.59375,82268.0,272257.0,228401.0
3.59765625,82317.0,272247.0,228374.0
3.6015625,82316.0,272299.0,228420.0
3.60546875,82346.0,272253.0,228383.0
3.609375,82336.0,272278.0,228407.0
3.61328125,82328.0,272261.0,228403.0
3.6171875,82336.0,272277.0,228408.0
3.62109375,82351.0,272268.0,228423.0
3.625,82371.0,272298.0,228415.0
3.62890625,82364.0,272256.0,228414.0
3.6328125,82376.0,272258.0,228411.0
3.63671875,82410.0,272262.0,228412.0
3.640625,82403.0,272250.0,228420.0
3.64453125,82411.0,272255.0,228415.0
3.6484375,82433.0,272295.0,228428.0
3.65234375,82456.0,272279.0,228410.0
3.65625,82474.0,272291.0,228427.0
3.66015625,82461.0,272280.0,228414.0
3.6640625,82495.0,272242.0,228418.0
3.66796875,82502.0,272260.0,228435.0
3.671875,82479.0,272251.0,228431.0
3.67578125,82489.0,272247.0,228422.0
3.6796875,82523.0,272280.0,228407.0
3.68359375,82504.0,272244.0,228405.0
3.6875,82529.0,272267.0,228416.0
3.69140625,82522.0,272249.0,228415.0
3.6953125,82525.0,272247.0,228423.0
3.69921875,82555.0,272242.0,228402.0
3.703125,82558.0,272272.0,228424.0
3.70703125,82534.0,272246.0,228419.0
3.7109375,82573.0,272280.0,228415.0
3.71484375,82583.0,272263.0,228405.0
3.71875,82584.0,272254.0,228439.0
3.72265625,82594.0,272269.0,228433.0
3.7265625,82595.0,272252.0,228432.0
3.73046875,82587.0,272236.0,228423.0
3.734375,82612.0,272265.0,228402.0
3.73828125,82651.0,272262.0,228413.0
3.7421875,82651.0,272300.0,228432.0
3.74609375,82614.0,272275.0,228435.0
3.75,82683.0,272259.0,228417.0
3.75390625,82654.0,272242.0,228431.0
3.7578125,82685.0,272255.0,228444.0
3.76171875,82691.0,272254.0,228435.0
3.765625,82690.0,272235.0,228437.0
3.76953125,82698.0,272254.0,228430.0
3.7734375,82704.0,272303.0,228436.0
3.77734375,82720.0,272282.0,228432.0
3.78125,82719.0,272272.0,228423.0
3.78515625,82724.0,272269.0,228450.0
3.7890625,82749.0,272260.0,228454.0
3.79296875,82755.0,272249.0,228455.0
3.796875,82777.0,272275.0,228446.0
3.80078125,82767.0,272259.0,228440.0
3.8046875,82787.0,272269.0,228490.0
3.80859375,82777.0,272270.0,228432.0
3.8125,82810.0,272266.0,228466.0
3.81640625,82805.0,272251.0,228438.0
3.8203125,82814.0,272268.0,228453.0
3.82421875,82814.0,272277.0,228475.0
3.828125,82863.0,272286.0,228467.0
3.83203125,82830.0,272272.0,228462.0
3.8359375,82854.0,272274.0,228470.0
3.83984375,82875.0,272265.0,228483.0
3.84375,82865.0,272289.0,228502.0
3.84765625,82860.0,272260.0,228465.0
3.8515625,82892.0,272255.0,228479.0
3.85546875,82885.0,272290.0,228468.0
3.859375,82875.0,272258.0,228469.0
3.86328125,82888.0,272284.0,228439.0
3.8671875,82882.0,272246.0,228448.0
3.87109375,82874.0,272279.0,228450.0
3.875,82880.0,272267.0,228438.0
3.87890625,82854.0,272241.0,228423.0
3.8828125,82870.0,272279.0,228422.0
3.88671875,82827.0,272263.0,228407.0
3.890625,82825.0,272239.0,228422.0
3.89453125,82809.0,272246.0,228407.0
3.8984375,82753.0,272235.0,228407.0
3.90234375,82717.0,272238.0,228382.0
3.90625,82675.0,272227.0,228373.0
3.91015625,82638.0,272226.0,228375.0
3.9140625,82602.0,272240.0,228378.0
3.91796875,82560.0,272231.0,228334.0
3.921875,82524.0,272226.0,228342.0
3.92578125,82460.0,272213.0,228346.0
3.9296875,82425.0,272206.0,228339.0
3.93359375,82394.0,272207.0,228315.0
3.9375,82329.0,272194.0,228316.0
3.94140625,82302.0,272227.0,228298.0
3.9453125,82242.0,272221.0,228299.0
3.94921875,82203.0,272218.0,228257.0
3.953125,82155.0,272240.0,228290.0
3.95703125,82097.0,272184.0,228279.0
3.9609375,82090.0,272219.0,228279.0
3.96484375,82047.0,272206.0,228251.0
3.96875,81995.0,272217.0,228253.0
3.97265625,81973.0,272186.0,228272.0
3.9765625,81927.0,272188.0,228264.0
3.98046875,81926.0,272186.0,228245.0
3.984375,81889.0,272200.0,228253.0
3.98828125,81847.0,272183.0,228263.0
3.9921875,81835.0,272190.0,228238.0
3.99609375,81817.0,272176.0,228249.0
4.0,81775.0,272182.0,228250.0
4.00390625,81755.0,272165.0,228243.0
4.0078125,81732.0,272209.0,228246.0
4.01171875,81726.0,272195.0,228228.0
4.015625,81684.0,272191.0,228241.0
4.01953125,81697.0,272166.0,228225.0
4.0234375,81636.0,272180.0,228224.0
4.02734375,81657.0,272149.0,228215.0
4.03125,81624.0,272140.0,228238.0
4.03515625,81621.0,272163.0,228230.0
4.0390625,81576.0,272163.0,228243.0
4.04296875,81586.0,272166.0,228211.0
4.046875,81561.0,272152.0,228214.0
4.05078125,81564.0,272161.0,228204.0
4.0546875,81544.0,272124.0,228217.0
4.05859375,81538.0,272150.0,228212.0
4.0625,81515.0,272162.0,228222.0
4.06640625,81535.0,272171.0,228211.0
4.0703125,81510.0,272160.0,228201.0
4.07421875,81496.0,272158.0,228226.0
4.078125,81504.0,272148.0,228203.0
4.08203125,81502.0,272161.0,228221.0
4.0859375,81505.0,272147.0,228214.0
4.08984375,81517.0,272145.0,228232.0
4.09375,81495.0,272156.0,228236.0
4.09765625,81508.0,272155.0,228212.0
4.1015625,81523.0,272151.0,228225.0
4.10546875,81521.0,272158.0,228236.0
4.109375,81523.0,272157.0,228250.0
4.11328125,81504.0,272133.0,228245.0
4.1171875,81559.0,272164.0,228245.0
4.12109375,81537.0,272171.0,228234.0
4.125,81542.0,272144.0,228242.0
4.12890625,81540.0,272155.0,228243.0
4.1328125,81567.0,272149.0,228252.0
4.13671875,81588.0,272150.0,228257.0
4.140625,81599.0,272151.0,228285.0
4.14453125,81598.0,272159.0,228278.0
4.1484375,81586.0,272161.0,228282.0
4.15234375,81609.0,272180.0,228241.0
4.15625,81615.0,272155.0,228260.0
4.16015625,81622.0,272177.0,228246.0
4.1640625,81642.0,272169.0,228294.0
4.16796875,81627.0,272164.0,228258.0
4.171875,81644.0,272174.0,228276.0
4.17578125,81647.0,272182.0,228294.0
4.1796875,81667.0,272156.0,228263.0
4.18359375,81641.0,272170.0,228256.0
4.1875,81658.0,272161.0,228275.0
4.19140625,81647.0,272143.0,228281.0
4.1953125,81672.0,272170.0,228255.0
4.19921875,81660.0,272151.0,228264.0
4.203125,81655.0,272151.0,228259.0
4.20703125,81651.0,272163.0,228268.0
4.2109375,81666.0,272176.0,228267.0
4.21484375,81655.0,272132.0,228270.0
4.21875,81660.0,272165.0,228265.0
4.22265625,81684.0,272164.0,228272.0
4.2265625,81669.0,272156.0,228258.0
4.23046875,81684.0,272137.0,228252.0
4.234375,81683.0,272141.0,228262.0
4.23828125,81691.0,272145.0,228265.0
4.2421875,81677.0,272126.0,228260.0
4.24609375,81692.0,272160.0,228260.0
4.25,81675.0,272142.0,228256.0
4.25390625,81703.0,272151.0,228245.0
4.2578125,81727.0,272137.0,228261.0
4.26171875,81722.0,272149.0,228272.0
4.265625,81719.0,272160.0,228234.0
4.26953125,81748.0,272155.0,228249.0
4.2734375,81721.0,272169.0,228279.0
4.27734375,81736.0,272139.0,228264.0
4.28125,81742.0,272163.0,228248.0
4.28515625,81757.0,272132.0,228264.0
4.2890625,81741.0,272173.0,228263.0
4.29296875,81751.0,272160.0,228271.0
4.296875,81789.0,272162.0,228274.0
4.30078125,81794.0,272146.0,228263.0
4.3046875,81807.0,272144.0,228278.0
4.30859375,81801.0,272152.0,228272.0
4.3125,81803.0,272136.0,228281.0
4.31640625,81815.0,272163.0,228273.0
4.3203125,81817.0,272162.0,228282.0
4.32421875,81847.0,272135.0,228280.0
4.328125,81856.0,272173.0,228286.0
4.33203125,81844.0,272172.0,228299.0
4.3359375,81859.0,272176.0,228286.0
4.33984375,81861.0,272147.0,228297.0
4.34375,81876.0,272172.0,228318.0
4.34765625,81896.0,272158.0,228326.0
4.3515625,81893.0,272159.0,228309.0
4.35546875,81909.0,272175.0,228304.0
4.359375,81947.0,272174.0,228314.0
4.36328125,81958.0,272163.0,228309.0
4.3671875,81941.0,272154.0,228310.0
4.37109375,81952.0,272177.0,228304.0
4.375,81946.0,272157.0,228320.0
4.37890625,81959.0,272166.0,228311.0
4.3828125,81962.0,272173.0,228313.0
4.38671875,81972.0,272160.0,228323.0
4.390625,81989.0,272173.0,228317.0
4.39453125,81988.0,272191.0,228333.0
4.3984375,82010.0,272146.0,228344.0
4.40234375,82019.0,272166.0,228339.0
4.40625,82031.0,272195.0,228336.0
4.41015625,82026.0,272188.0,228339.0
4.4140625,82053.0,272171.0,228327.0
4.41796875,82072.0,272194.0,228347.0
4.421875,82063.0,272187.0,228330.0
4.42578125,82066.0,272199.0,228331.0
4.4296875,82088.0,272174.0,228345.0
4.43359375,82095.0,272196.0,228352.0
4.4375,82100.0,272162.0,228333.0
4.44140625,82110.0,272185.0,228324.0
4.4453125,82137.0,272172.0,228350.0
4.44921875,82140.0,272157.0,228350.0
4.453125,82141.0,272176.0,228338.0
4.45703125,82140.0,272203.0,228342.0
4.4609375,82151.0,272171.0,228345.0
4.46484375,82151.0,272182.0,228340.0
4.46875,82183.0,272178.0,228344.0
4.47265625,82157.0,272163.0,228332.0
4.4765625,82193.0,272190.0,228341.0
4.48046875,82190.0,272167.0,228351.0
4.484375,82214.0,272174.0,228363.0
4.48828125,82227.0,272196.0,228353.0
4.4921875,82240.0,272202.0,228360.0
4.49609375,82245.0,272189.0,228363.0
4.5,82264.0,272205.0,228381.0
4.50390625,82280.0,272182.0,228377.0
4.5078125,82264.0,272202.0,228366.0
4.51171875,82287.0,272179.0,228357.0
4.515625,82285.0,272201.0,228375.0
4.51953125,82301.0,272206.0,228369.0
4.5234375,82310.0,272190.0,228377.0
4.52734375,82332.0,272205.0,228373.0
4.53125,82347.0,272193.0,228378.0
4.53515625,82364.0,272176.0,228373.0
4.5390625,82365.0,272196.0,228364.0
4.54296875,82374.0,272222.0,228379.0
4.546875,82385.0,272191.0,228382.0
4.55078125,82372.0,272194.0,228401.0
4.5546875,82408.0,272210.0,228399.0
4.55859375,82428.0,272216.0,228389.0
4.5625,82426.0,272221.0,228386.0
4.56640625,82428.0,272192.0,228408.0
4.5703125,82427.0,272197.0,228385.0
4.57421875,82449.0,272192.0,228395.0
4.578125,82458.0,272196.0,228381.0
4.58203125,82467.0,272202.0,228418.0
4.5859375,82455.0,272182.0,228389.0
4.58984375,82489.0,272208.0,228390.0
4.59375,82492.0,272202.0,228394.0
4.59765625,82509.0,272182.0,228399.0
4.6015625,82486.0,272194.0,228417.0
4.60546875,82538.0,272190.0,228384.0
4.609375,82517.0,272224.0,228400.0
4.61328125,82513.0,272194.0,228397.0
4.6171875,82512.0,272190.0,228397.0
4.62109375,82513.0,272173.0,228377.0
4.625,82514.0,272174.0,228385.0
4.62890625,82508.0,272187.0,228385.0
4.6328125,82494.0,272174.0,228392.0
4.63671875,82516.0,272169.0,228368.0
4.640625,82509.0,272162.0,228358.0
4.64453125,82471.0,272171.0,228374.0
4.6484375,82442.0,272186.0,228359.0
4.65234375,82443.0,272161.0,228347.0
4.65625,82392.0,272179.0,228345.0
4.66015625,82362.0,272174.0,228324.0
4.6640625,82322.0,272181.0,228330.0
4.66796875,82273.0,272166.0,228308.0
4.671875,82239.0,272163.0,228310.0
4.67578125,82206.0,272154.0,228305.0
4.6796875,82160.0,272154.0,228275.0
4.68359375,82132.0,272142.0,228286.0
4.6875,82074.0,272122.0,228288.0
4.69140625,82048.0,272154.0,228251.0
4.6953125,81983.0,272134.0,228247.0
4.69921875,81954.0,272138.0,228254.0
4.703125,81892.0,272129.0,228237.0
4.70703125,81850.0,272134.0,228236.0
4.7109375,81806.0,272123.0,228221.0
4.71484375,81761.0,272138.0,228240.0
4.71875,81722.0,272131.0,228195.0
4.72265625,81704.0,272133.0,228183.0
4.7265625,81639.0,272111.0,228174.0
4.73046875,81635.0,272131.0,228176.0
4.734375,81572.0,272136.0,228193.0
4.73828125,81597.0,272096.0,228181.0
4.7421875,81543.0,272136.0,228188.0
4.74609375,81522.0,272095.0,228175.0
4.75,81495.0,272123.0,228174.0
4.75390625,81470.0,272117.0,228179.0
4.7578125,81441.0,272126.0,228169.0
4.76171875,81424.0,272105.0,228166.0
4.765625,81409.0,272126.0,228166.0
4.76953125,81396.0,272110.0,228177.0
4.7734375,81362.0,272111.0,228175.0
4.77734375,81363.0,272112.0,228168.0
4.78125,81343.0,272107.0,228166.0
4.78515625,81320.0,272136.0,228176.0
4.7890625,81333.0,272091.0,228163.0
4.79296875,81301.0,272117.0,228151.0
4.796875,81303.0,272092.0,228143.0
4.80078125,81285.0,272106.0,228165.0
4.8046875,81275.0,272101.0,228143.0
4.80859375,81280.0,272106.0,228147.0
4.8125,81262.0,272117.0,228134.0
4.81640625,81265.0,272121.0,228161.0
4.8203125,81254.0,272101.0,228157.0
4.82421875,81242.0,272089.0,228145.0
4.828125,81226.0,272109.0,228177.0
4.83203125,81225.0,272084.0,228157.0
4.8359375,81215.0,272100.0,228155.0
4.83984375,81213.0,272102.0,228179.0
4.84375,81261.0,272091.0,228169.0
4.84765625,81238.0,272101.0,228190.0
4.8515625,81238.0,272081.0,228187.0
4.85546875,81262.0,272105.0,228188.0
4.859375,81270.0,272089.0,228176.0
4.86328125,81288.0,272094.0,228187.0
4.8671875,81295.0,272094.0,228196.0
4.87109375,81300.0,272104.0,228204.0
4.875,81309.0,272107.0,228217.0
4.87890625,81324.0,272108.0,228202.0
4.8828125,81334.0,272106.0,228201.0
4.88671875,81339.0,272112.0,228229.0
4.890625,81349.0,272136.0,228216.0
4.89453125,81370.0,272152.0,228234.0
4.8984375,81394.0,272122.0,228218.0
4.90234375,81382.0,272109.0,228218.0
4.90625,81420.0,272142.0,228227.0
4.91015625,81421.0,272117.0,228207.0
4.9140625,81428.0,272108.0,228215.0
4.91796875,81445.0,272092.0,228215.0
4.921875,81437.0,272101.0,228204.0
4.92578125,81462.0,272096.0,228193.0
4.9296875,81431.0,272084.0,228216.0
4.93359375,81461.0,272117.0,228208.0
4.9375,81481.0,272080.0,228230.0
4.94140625,81483.0,272106.0,228215.0
4.9453125,81474.0,272106.0,228227.0
4.94921875,81501.0,272093.0,228232.0
4.953125,81486.0,272110.0,228208.0
4.95703125,81480.0,272122.0,228202.0
4.9609375,81498.0,272063.0,228229.0
4.96484375,81500.0,272088.0,228209.0
4.96875,81458.0,272087.0,228216.0
4.97265625,81482.0,272097.0,228211.0
4.9765625,81493.0,272110.0,228217.0
4.98046875,81502.0,272083.0,228224.0
4.984375,81504.0,272108.0,228215.0
4.98828125,81508.0,272105.0,228227.0
4.9921875,81510.0,272121.0,228220.0
4.99609375,81503.0,272106.0,228207.0
5.0,81519.0,272108.0,228210.0
5.00390625,81531.0,272112.0,228210.0
5.0078125,81545.0,272080.0,228211.0
5.01171875,81521.0,272083.0,228202.0
5.015625,81548.0,272092.0,228220.0
5.01953125,81553.0,272088.0,228211.0
5.0234375,81567.0,272094.0,228216.0
5.02734375,81577.0,272079.0,228229.0
5.03125,81573.0,272090.0,228237.0
5.03515625,81583.0,272102.0,228232.0
5.0390625,81596.0,272076.0,228219.0
5.04296875,81625.0,272087.0,228231.0
5.046875,81609.0,272072.0,228243.0
5.05078125,81624.0,272108.0,228249.0
5.0546875,81618.0,272118.0,228255.0
5.05859375,81636.0,272079.0,228243.0
5.0625,81658.0,272109.0,228248.0
5.06640625,81673.0,272098.0,228251.0
5.0703125,81677.0,272103.0,228257.0
5.07421875,81672.0,272084.0,228247.0
5.078125,81701.0,272096.0,228253.0
5.08203125,81710.0,272090.0,228265.0
5.0859375,81738.0,272096.0,228269.0
5.08984375,81693.0,272086.0,228260.0
5.09375,81712.0,272098.0,228247.0
5.09765625,81733.0,272083.0,228274.0
5.1015625,81737.0,272108.0,228264.0
5.10546875,81749.0,272075.0,228269.0
5.109375,81759.0,272087.0,228282.0
5.11328125,81754.0,272114.0,228261.0
5.1171875,81761.0,272103.0,228275.0
5.12109375,81775.0,272097.0,228268.0
5.125,81793.0,272106.0,228283.0
5.12890625,81806.0,272113.0,228303.0
5.1328125,81819.0,272079.0,228312.0
5.13671875,81793.0,272077.0,228301.0
5.140625,81831.0,272090.0,228271.0
5.14453125,81831.0,272121.0,228294.0
5.1484375,81849.0,272098.0,228296.0
5.15234375,81825.0,272095.0,228271.0
5.15625,81843.0,272052.0,228285.0
5.16015625,81859.0,272087.0,228280.0
5.1640625,81880.0,272113.0,228302.0
5.16796875,81883.0,272123.0,228295.0
5.171875,81899.0,272107.0,228300.0
5.17578125,81891.0,272111.0,228314.0
5.1796875,81885.0,272090.0,228268.0
5.18359375,81907.0,272098.0,228283.0
5.1875,81914.0,272097.0,228291.0
5.19140625,81933.0,272122.0,228304.0
5.1953125,81933.0,272085.0,228291.0
5.19921875,81918.0,272104.0,228313.0
5.203125,81959.0,272112.0,228303.0
5.20703125,81957.0,272117.0,228326.0
5.2109375,81975.0,272113.0,228312.0
5.21484375,81977.0,272097.0,228316.0
5.21875,81973.0,272129.0,228334.0
5.22265625,82025.0,272105.0,228313.0
5.2265625,81987.0,272134.0,228317.0
5.23046875,82012.0,272112.0,228326.0
5.234375,82005.0,272128.0,228323.0
5.23828125,82027.0,272102.0,228324.0
5.2421875,82053.0,272105.0,228318.0
5.24609375,82039.0,272135.0,228332.0
5.25,82047.0,272158.0,228355.0
5.25390625,82058.0,272139.0,228332.0
5.2578125,82084.0,272132.0,228319.0
5.26171875,82094.0,272133.0,228341.0
5.265625,82091.0,272129.0,228340.0
5.26953125,82107.0,272117.0,228368.0
5.2734375,82113.0,272130.0,228320.0
5.27734375,82113.0,272092.0,228345.0
5.28125,82135.0,272123.0,228347.0
5.28515625,82140.0,272144.0,228359.0
5.2890625,82152.0,272126.0,228349.0
5.29296875,82174.0,272150.0,228349.0
5.296875,82195.0,272141.0,228359.0
5.30078125,82173.0,272129.0,228363.0
5.3046875,82190.0,272139.0,228371.0
5.30859375,82201.0,272133.0,228347.0
5.3125,82179.0,272118.0,228346.0
5.31640625,82214.0,272132.0,228359.0
5.3203125,82226.0,272140.0,228352.0
5.32421875,82248.0,272113.0,228349.0
5.328125,82242.0,272130.0,228357.0
5.33203125,82254.0,272124.0,228364.0
5.3359375,82250.0,272158.0,228361.0
5.33984375,82250.0,272114.0,228357.0
5.34375,82245.0,272131.0,228357.0
5.34765625,82246.0,272111.0,228361.0
5.3515625,82248.0,272132.0,228367.0
5.35546875,82228.0,272100.0,228371.0
5.359375,82232.0,272113.0,228354.0
5.36328125,82243.0,272081.0,228352.0
5.3671875,82228.0,272100.0,228354.0
5.37109375,82207.0,272111.0,228351.0
5.375,82190.0,272118.0,228318.0
5.37890625,82190.0,272121.0,228341.0
5.3828125,82145.0,272087.0,228325.0
5.38671875,82116.0,272096.0,228309.0
5.390625,82086.0,272121.0,228288.0
5.39453125,82052.0,272074.0,228289.0
5.3984375,82012.0,272084.0,228289.0
5.40234375,81988.0,272086.0,228303.0
5.40625,81936.0,272050.0,228282.0
5.41015625,81900.0,272074.0,228242.0
5.4140625,81846.0,272070.0,228251.0
5.41796875,81781.0,272038.0,228264.0
5.421875,81735.0,272058.0,228225.0
5.42578125,81665.0,272049.0,228197.0
5.4296875,81606.0,272032.0,228211.0
5.43359375,81540.0,272058.0,228196.0
5.4375,81464.0,272043.0,228198.0
5.44140625,81405.0,272023.0,228196.0
5.4453125,81369.0,272053.0,228155.0
5.44921875,81330.0,272025.0,228186.0
5.453125,81258.0,272039.0,228168.0
5.45703125,81217.0,272029.0,228146.0
5.4609375,81169.0,272022.0,228126.0
5.46484375,81144.0,272010.0,228145.0
5.46875,81098.0,272026.0,228130.0
5.47265625,81062.0,272023.0,228139.0
5.4765625,81015.0,272002.0,228126.0
5.48046875,80978.0,271985.0,228115.0
5.484375,80965.0,272016.0,228124.0
5.48828125,80923.0,272005.0,228142.0
5.4921875,80892.0,272006.0,228116.0
5.49609375,80859.0,272019.0,228141.0
5.5,80830.0,272029.0,228128.0
5.50390625,80821.0,272029.0,228115.0
5.5078125,80803.0,272017.0,228110.0
5.51171875,80792.0,272002.0,228111.0
5.515625,80759.0,271980.0,228101.0
5.51953125,80743.0,272008.0,228099.0
5.5234375,80747.0,271990.0,228103.0
5.52734375,80722.0,272011.0,228098.0
5.53125,80705.0,271999.0,228106.0
5.53515625,80681.0,272006.0,228089.0
5.5390625,80662.0,272016.0,228096.0
5.54296875,80679.0,271993.0,228087.0
5.546875,80667.0,271983.0,228073.0
5.55078125,80626.0,272004.0,228112.0
5.5546875,80640.0,271990.0,228101.0
5.55859375,80648.0,271990.0,228090.0
5.5625,80638.0,271983.0,228100.0
5.56640625,80616.0,271985.0,228099.0
5.5703125,80619.0,271988.0,228111.0
5.57421875,80600.0,271980.0,228123.0
5.578125,80598.0,272016.0,228088.0
5.58203125,80633.0,271986.0,228094.0
5.5859375,80613.0,272018.0,228098.0
5.58984375,80621.0,271994.0,228113.0
5.59375,80623.0,271986.0,228103.0
5.59765625,80630.0,272009.0,228102.0
5.6015625,80609.0,271982.0,228109.0
5.60546875,80656.0,271979.0,228115.0
5.609375,80650.0,271981.0,228135.0
5.61328125,80637.0,271996.0,228120.0
5.6171875,80676.0,271991.0,228147.0
5.62109375,80682.0,272006.0,228139.0
5.625,80669.0,271995.0,228128.0
5.62890625,80713.0,272016.0,228130.0
5.6328125,80697.0,272012.0,228130.0
5.63671875,80694.0,271972.0,228142.0
5.640625,80719.0,271983.0,228147.0
5.64453125,80715.0,271988.0,228129.0
5.6484375,80729.0,271996.0,228132.0
5.65234375,80741.0,271982.0,228131.0
5.65625,80739.0,272014.0,228159.0
5.66015625,80764.0,271987.0,228125.0
5.6640625,80762.0,272006.0,228114.0
5.66796875,80779.0,271992.0,228117.0
5.671875,80761.0,271986.0,228130.0
5.67578125,80774.0,272005.0,228121.0
5.6796875,80795.0,271997.0,228110.0
5.68359375,80795.0,271969.0,228139.0
5.6875,80785.0,271960.0,228127.0
5.69140625,80780.0,271982.0,228139.0
5.6953125,80800.0,271987.0,228122.0
5.69921875,80791.0,271964.0,228116.0
5.703125,80779.0,272004.0,228109.0
5.70703125,80774.0,272023.0,228120.0
5.7109375,80781.0,271979.0,228129.0
5.71484375,80778.0,271973.0,228115.0
5.71875,80785.0,272000.0,228145.0
5.72265625,80779.0,271990.0,228117.0
5.7265625,80793.0,271988.0,228125.0
5.73046875,80799.0,271988.0,228118.0
5.734375,80781.0,271993.0,228118.0
5.73828125,80776.0,271969.0,228121.0
5.7421875,80797.0,271959.0,228141.0
5.74609375,80811.0,271974.0,228139.0
5.75,80822.0,271952.0,228126.0
5.75390625,80797.0,271975.0,228136.0
5.7578125,80812.0,271967.0,228132.0
5.76171875,80800.0,271981.0,228153.0
5.765625,80833.0,271984.0,228139.0
5.76953125,80820.0,271997.0,228142.0
5.7734375,80836.0,271984.0,228122.0
5.77734375,80829.0,271977.0,228137.0
5.78125,80836.0,271979.0,228169.0
5.78515625,80848.0,272027.0,228170.0
5.7890625,80850.0,271989.0,228158.0
5.79296875,80885.0,271976.0,228172.0
5.796875,80862.0,272015.0,228162.0
5.80078125,80874.0,271983.0,228153.0
5.8046875,80889.0,272013.0,228177.0
5.80859375,80911.0,271991.0,228169.0
5.8125,80918.0,272009.0,228188.0
5.81640625,80922.0,272006.0,228181.0
5.8203125,80918.0,272008.0,228187.0
5.82421875,80932.0,271981.0,228174.0
5.828125,80928.0,272006.0,228200.0
5.83203125,80963.0,272015.0,228182.0
5.8359375,80982.0,272015.0,228179.0
5.83984375,80963.0,272014.0,228186.0
5.84375,81006.0,272009.0,228222.0
5.84765625,80984.0,271995.0,228175.0
5.8515625,81019.0,272019.0,228195.0
5.85546875,81009.0,271997.0,228190.0
5.859375,81022.0,272016.0,228212.0
5.86328125,81043.0,272026.0,228193.0
5.8671875,81046.0,272016.0,228218.0
5.87109375,81064.0,272024.0,228214.0
5.875,81062.0,272013.0,228201.0
5.87890625,81094.0,271999.0,228214.0
5.8828125,81070.0,272004.0,228223.0
5.88671875,81104.0,272009.0,228205.0
5.890625,81120.0,271997.0,228214.0
5.89453125,81106.0,272022.0,228191.0
5.8984375,81126.0,271999.0,228215.0
5.90234375,81122.0,272012.0,228211.0
5.90625,81135.0,272009.0,228212.0
5.91015625,81182.0,271992.0,228222.0
5.9140625,81148.0,272011.0,228233.0
5.91796875,81171.0,272014.0,228218.0
5.921875,81178.0,272005.0,228223.0
5.92578125,81198.0,272041.0,228225.0
5.9296875,81184.0,272017.0,228204.0
5.93359375,81214.0,271985.0,228216.0
5.9375,81220.0,272029.0,228211.0
5.94140625,81225.0,272021.0,228221.0
5.9453125,81221.0,272049.0,228244.0
5.94921875,81250.0,272027.0,228241.0
5.953125,81248.0,272043.0,228239.0
5.95703125,81249.0,272017.0,228233.0
5.9609375,81270.0,272036.0,228241.0
5.96484375,81265.0,271995.0,228209.0
5.96875,81303.0,272008.0,228253.0
5.97265625,81283.0,272026.0,228254.0
5.9765625,81295.0,272054.0,228243.0
5.98046875,81314.0,271984.0,228239.0
5.984375,81314.0,272030.0,228230.0
5.98828125,81319.0,272032.0,228267.0
5.9921875,81327.0,272033.0,228254.0
5.99609375,81349.0,272028.0,228248.0
6.0,81350.0,272051.0,228263.0
6.00390625,81362.0,272054.0,228262.0
6.0078125,81399.0,272027.0,228261.0
6.01171875,81403.0,272018.0,228255.0
6.015625,81385.0,272056.0,228261.0
6.01953125,81407.0,272051.0,228284.0
6.0234375,81410.0,272037.0,228262.0
6.02734375,81424.0,272027.0,228276.0
6.03125,81435.0,272016.0,228261.0
6.03515625,81434.0,272033.0,228273.0
6.0390625,81456.0,272019.0,228277.0
6.04296875,81441.0,272024.0,228266.0
6.046875,81451.0,272068.0,228268.0
6.05078125,81476.0,272041.0,228270.0
6.0546875,81484.0,272045.0,228291.0
6.05859375,81484.0,271995.0,228307.0
6.0625,81491.0,272024.0,228271.0
6.06640625,81507.0,272042.0,228278.0
6.0703125,81524.0,272035.0,228277.0
6.07421875,81540.0,272030.0,228281.0
6.078125,81529.0,272018.0,228297.0
6.08203125,81525.0,272050.0,228278.0
6.0859375,81537.0,272031.0,228267.0
6.08984375,81538.0,272016.0,228275.0
6.09375,81536.0,272026.0,228268.0
6.09765625,81551.0,271974.0,228261.0
6.1015625,81518.0,272040.0,228279.0
6.10546875,81510.0,272016.0,228254.0
6.109375,81499.0,272017.0,228213.0
6.11328125,81513.0,272023.0,228240.0
6.1171875,81464.0,271996.0,228223.0
6.12109375,81419.0,272006.0,228229.0
6.125,81409.0,272015.0,228223.0
6.12890625,81384.0,272016.0,228196.0
6.1328125,81344.0,272011.0,228210.0
6.13671875,81314.0,272029.0,228199.0
6.140625,81262.0,272005.0,228199.0
6.14453125,81227.0,271980.0,228187.0
6.1484375,81174.0,271998.0,228169.0
6.15234375,81140.0,272002.0,228173.0
6.15625,81088.0,272005.0,228182.0
6.16015625,81042.0,272003.0,228157.0
6.1640625,81001.0,271970.0,228141.0
6.16796875,80939.0,271985.0,228134.0
6.171875,80900.0,271982.0,228158.0
6.17578125,80876.0,272004.0,228162.0
6.1796875,80814.0,271993.0,228123.0
6.18359375,80794.0,271971.0,228135.0
6.1875,80733.0,271965.0,228113.0
6.19140625,80705.0,271977.0,228141.0
6.1953125,80649.0,271963.0,228126.0
6.19921875,80626.0,271972.0,228122.0
6.203125,80576.0,271976.0,228109.0
6.20703125,80546.0,271978.0,228112.0
6.2109375,80516.0,271982.0,228101.0
6.21484375,80481.0,271968.0,228101.0
6.21875,80451.0,271972.0,228087.0
6.22265625,80429.0,271983.0,228082.0
6.2265625,80403.0,271961.0,228074.0
6.23046875,80392.0,271974.0,228070.0
6.234375,80359.0,271947.0,228077.0
6.23828125,80351.0,271962.0,228080.0
6.2421875,80323.0,271968.0,228083.0
6.24609375,80325.0,271965.0,228059.0
6.25,80292.0,271958.0,228077.0
6.25390625,80278.0,271937.0,228077.0
6.2578125,80242.0,271942.0,228072.0
6.26171875,80248.0,271928.0,228070.0
6.265625,80226.0,271943.0,228076.0
6.26953125,80215.0,271969.0,228074.0
6.2734375,80224.0,271975.0,228083.0
6.27734375,80176.0,271948.0,228080.0
6.28125,80179.0,271968.0,228060.0
6.28515625,80167.0,271964.0,228054.0
6.2890625,80161.0,271956.0,228100.0
6.29296875,80156.0,271953.0,228059.0
6.296875,80131.0,271936.0,228069.0
6.30078125,80136.0,271953.0,228075.0
6.3046875,80146.0,271948.0,228065.0
6.30859375,80141.0,271953.0,228049.0
6.3125,80162.0,271968.0,228087.0
6.31640625,80173.0,271950.0,228070.0
6.3203125,80188.0,271937.0,228084.0
6.32421875,80152.0,271974.0,228075.0
6.328125,80189.0,271944.0,228096.0
6.33203125,80198.0,271962.0,228101.0
6.3359375,80182.0,271956.0,228102.0
6.33984375,80185.0,271970.0,228095.0
6.34375,80213.0,271974.0,228099.0
6.34765625,80231.0,271954.0,228097.0
6.3515625,80235.0,271938.0,228087.0
6.35546875,80255.0,271973.0,228104.0
6.359375,80244.0,271932.0,228109.0
6.36328125,80284.0,271951.0,228110.0
6.3671875,80273.0,271947.0,228107.0
6.37109375,80302.0,271952.0,228109.0
6.375,80280.0,271945.0,228114.0
6.37890625,80298.0,271944.0,228114.0
6.3828125,80302.0,271953.0,228125.0
6.38671875,80326.0,271969.0,228105.0
6.390625,80339.0,271972.0,228127.0
6.39453125,80341.0,271960.0,228108.0
6.3984375,80364.0,271959.0,228103.0
6.40234375,80309.0,271935.0,228090.0
6.40625,80356.0,271951.0,228110.0
6.41015625,80374.0,271983.0,228106.0
6.4140625,80363.0,271936.0,228110.0
6.41796875,80360.0,271977.0,228128.0
6.421875,80367.0,271969.0,228110.0
6.42578125,80354.0,271968.0,228121.0
6.4296875,80377.0,271980.0,228098.0
6.43359375,80352.0,271969.0,228115.0
6.4375,80393.0,271982.0,228112.0
6.44140625,80379.0,271974.0,228119.0
6.4453125,80404.0,271981.0,228135.0
6.44921875,80390.0,271989.0,228115.0
6.453125,80404.0,271988.0,228102.0
6.45703125,80412.0,271979.0,228149.0
6.4609375,80406.0,271979.0,228125.0
6.46484375,80400.0,271953.0,228113.0
6.46875,80416.0,271963.0,228111.0
6.47265625,80423.0,271969.0,228107.0
6.4765625,80428.0,271948.0,228110.0
6.48046875,80427.0,271967.0,228128.0
6.484375,80433.0,271958.0,228114.0
6.48828125,80482.0,271978.0,228141.0
6.4921875,80459.0,271961.0,228120.0
6.49609375,80471.0,271970.0,228131.0
6.5,80497.0,271933.0,228137.0
6.50390625,80494.0,271955.0,228148.0
6.5078125,80509.0,271964.0,228123.0
6.51171875,80511.0,271975.0,228131.0
6.515625,80514.0,271988.0,228140.0
6.51953125,80535.0,271989.0,228156.0
6.5234375,80541.0,271992.0,228154.0
6.52734375,80544.0,271976.0,228154.0
6.53125,80586.0,271980.0,228148.0
6.53515625,80550.0,271972.0,228181.0
6.5390625,80618.0,271958.0,228154.0
6.54296875,80581.0,271987.0,228167.0
6.546875,80612.0,271989.0,228160.0
6.55078125,80612.0,271973.0,228160.0
6.5546875,80636.0,271967.0,228169.0
6.55859375,80639.0,272011.0,228181.0
6.5625,80637.0,271987.0,228171.0
6.56640625,80643.0,271983.0,228150.0
6.5703125,80659.0,272004.0,228160.0
6.57421875,80673.0,271971.0,228168.0
6.578125,80696.0,271992.0,228180.0
6.58203125,80696.0,271969.0,228156.0
6.5859375,80707.0,271983.0,228180.0
6.58984375,80725.0,271969.0,228190.0
6.59375,80727.0,271981.0,228181.0
6.59765625,80749.0,271980.0,228212.0
6.6015625,80733.0,272004.0,228172.0
6.60546875,80756.0,271973.0,228185.0
6.609375,80770.0,271983.0,228187.0
6.61328125,80792.0,271979.0,228183.0
6.6171875,80777.0,271966.0,228207.0
6.62109375,80829.0,271988.0,228190.0
6.625,80801.0,271989.0,228170.0
6.62890625,80838.0,272011.0,228210.0
6.6328125,80830.0,271988.0,228214.0
6.63671875,80835.0,272010.0,228218.0
6.640625,80851.0,271991.0,228207.0
6.64453125,80860.0,272003.0,228225.0
6.6484375,80866.0,271999.0,228208.0
6.65234375,80919.0,271987.0,228214.0
6.65625,80908.0,271981.0,228229.0
6.66015625,80897.0,271984.0,228228.0
6.6640625,80915.0,272011.0,228236.0
6.66796875,80929.0,272006.0,228239.0
6.671875,80942.0,272016.0,228254.0
6.67578125,80971.0,272005.0,228253.0
6.6796875,80961.0,272021.0,228234.0
6.68359375,80984.0,272016.0,228233.0
6.6875,80991.0,272023.0,228230.0
6.69140625,81040.0,271990.0,228252.0
6.6953125,81002.0,272016.0,228251.0
6.69921875,81004.0,272019.0,228268.0
6.703125,81050.0,272011.0,228235.0
6.70703125,81054.0,272007.0,228263.0
6.7109375,81085.0,272027.0,228265.0
6.71484375,81069.0,272029.0,228240.0
6.71875,81079.0,272018.0,228288.0
6.72265625,81123.0,272022.0,228251.0
6.7265625,81098.0,272011.0,228250.0
6.73046875,81125.0,272024.0,228252.0
6.734375,81120.0,272024.0,228248.0
6.73828125,81126.0,272020.0,228270.0
6.7421875,81119.0,272042.0,228262.0
6.74609375,81155.0,272047.0,228296.0
6.75,81179.0,272014.0,228273.0
6.75390625,81192.0,272035.0,228288.0
6.7578125,81216.0,272022.0,228299.0
6.76171875,81213.0,272063.0,228277.0
6.765625,81227.0,272032.0,228273.0
6.76953125,81226.0,272043.0,228300.0
6.7734375,81235.0,272053.0,228296.0
6.77734375,81261.0,272050.0,228296.0
6.78125,81248.0,272046.0,228308.0
6.78515625,81282.0,272047.0,228285.0
6.7890625,81303.0,272036.0,228301.0
6.79296875,81277.0,272027.0,228308.0
6.796875,81288.0,272038.0,228288.0
6.80078125,81299.0,272048.0,228317.0
6.8046875,81323.0,272034.0,228310.0
6.80859375,81313.0,272070.0,228297.0
6.8125,81325.0,272071.0,228316.0
6.81640625,81358.0,272059.0,228320.0
6.8203125,81341.0,272021.0,228294.0
6.82421875,81377.0,272048.0,228307.0
6.828125,81356.0,272040.0,228321.0
6.83203125,81366.0,272017.0,228300.0
6.8359375,81362.0,272054.0,228299.0
6.83984375,81395.0,272031.0,228293.0
6.84375,81365.0,272035.0,228298.0
6.84765625,81362.0,272035.0,228271.0
6.8515625,81347.0,272031.0,228252.0
6.85546875,81320.0,272022.0,228270.0
6.859375,81324.0,272015.0,228294.0
6.86328125,81275.0,272041.0,228264.0
6.8671875,81273.0,272046.0,228262.0
6.87109375,81240.0,272031.0,228252.0
6.875,81198.0,272030.0,228251.0
6.87890625,81160.0,272032.0,228220.0
6.8828125,81112.0,272021.0,228229.0
6.88671875,81057.0,272019.0,228235.0
6.890625,81026.0,272002.0,228232.0
6.89453125,81011.0,272029.0,228221.0
6.8984375,80920.0,272023.0,228198.0
6.90234375,80887.0,272029.0,228177.0
6.90625,80853.0,272003.0,228182.0
6.91015625,80805.0,272000.0,228191.0
6.9140625,80765.0,272007.0,228187.0
6.91796875,80709.0,272016.0,228175.0
6.921875,80674.0,272029.0,228150.0
6.92578125,80627.0,271993.0,228160.0
6.9296875,80576.0,272018.0,228140.0
6.93359375,80532.0,271996.0,228135.0
6.9375,80501.0,271991.0,228130.0
6.94140625,80443.0,272000.0,228154.0
6.9453125,80424.0,271993.0,228141.0
6.94921875,80380.0,272010.0,228110.0
6.953125,80351.0,271989.0,228124.0
6.95703125,80289.0,271996.0,228108.0
6.9609375,80290.0,271978.0,228141.0
6.96484375,80237.0,271988.0,228138.0
6.96875,80235.0,271991.0,228116.0
6.97265625,80209.0,271986.0,228102.0
6.9765625,80178.0,271981.0,228114.0
6.98046875,80151.0,271998.0,228115.0
6.984375,80107.0,271975.0,228128.0
6.98828125,80106.0,271974.0,228083.0
6.9921875,80077.0,271980.0,228104.0
6.99609375,80044.0,271978.0,228092.0
7.0,80017.0,271967.0,228077.0
7.00390625,79997.0,271972.0,228080.0
7.0078125,80004.0,271956.0,228099.0
7.01171875,79991.0,271971.0,228100.0
7.015625,79971.0,271951.0,228070.0
7.01953125,79968.0,271964.0,228075.0
7.0234375,79930.0,271963.0,228096.0
7.02734375,79924.0,272013.0,228068.0
7.03125,79952.0,271971.0,228067.0
7.03515625,79881.0,271969.0,228068.0
7.0390625,79903.0,271981.0,228068.0
7.04296875,79881.0,271947.0,228076.0
7.046875,79897.0,271966.0,228074.0
7.05078125,79888.0,271965.0,228098.0
7.0546875,79885.0,271965.0,228087.0
7.05859375,79905.0,271978.0,228097.0
7.0625,79883.0,271969.0,228087.0
7.06640625,79902.0,271948.0,228106.0
7.0703125,79904.0,271959.0,228096.0
7.07421875,79923.0,271963.0,228113.0
7.078125,79945.0,271971.0,228106.0
7.08203125,79945.0,272011.0,228097.0
7.0859375,79951.0,271953.0,228143.0
7.08984375,79958.0,271999.0,228104.0
7.09375,79961.0,271970.0,228119.0
7.09765625,79970.0,271986.0,228111.0
7.1015625,79985.0,271961.0,228110.0
7.10546875,80011.0,271980.0,228108.0
7.109375,80001.0,271975.0,228096.0
7.11328125,80030.0,272004.0,228125.0
7.1171875,80035.0,271987.0,228128.0
7.12109375,80049.0,271987.0,228125.0
7.125,80033.0,271973.0,228135.0
7.12890625,80060.0,271982.0,228126.0
7.1328125,80053.0,271998.0,228121.0
7.13671875,80078.0,271975.0,228123.0
7.140625,80087.0,271962.0,228095.0
7.14453125,80074.0,271968.0,228113.0
7.1484375,80098.0,271988.0,228113.0
7.15234375,80093.0,271974.0,228113.0
7.15625,80106.0,271978.0,228120.0
7.16015625,80132.0,271971.0,228109.0
7.1640625,80085.0,271964.0,228104.0
7.16796875,80105.0,271952.0,228118.0
7.171875,80134.0,271975.0,228119.0
7.17578125,80122.0,271954.0,228129.0
7.1796875,80111.0,271980.0,228143.0
7.18359375,80129.0,271979.0,228132.0
7.1875,80131.0,271988.0,228129.0
7.19140625,80139.0,271968.0,228110.0
7.1953125,80134.0,271976.0,228112.0
7.19921875,80178.0,271984.0,228126.0
7.203125,80155.0,271978.0,228126.0
7.20703125,80179.0,271993.0,228126.0
7.2109375,80162.0,271957.0,228128.0
7.21484375,80185.0,272000.0,228123.0
7.21875,80168.0,271980.0,228131.0
7.22265625,80190.0,271977.0,228141.0
7.2265625,80197.0,271994.0,228165.0
7.23046875,80202.0,271985.0,228126.0
7.234375,80215.0,271996.0,228137.0
7.23828125,80221.0,271973.0,228126.0
7.2421875,80232.0,271987.0,228146.0
7.24609375,80236.0,271991.0,228159.0
7.25,80243.0,271993.0,228140.0
7.25390625,80253.0,272006.0,228145.0
7.2578125,80289.0,271968.0,228157.0
7.26171875,80271.0,271998.0,228165.0
7.265625,80283.0,271980.0,228169.0
7.26953125,80294.0,271967.0,228164.0
7.2734375,80292.0,271958.0,228152.0
7.27734375,80299.0,271968.0,228161.0
7.28125,80319.0,271967.0,228152.0
7.28515625,80322.0,271974.0,228158.0
7.2890625,80337.0,271966.0,228164.0
7.29296875,80331.0,271982.0,228161.0
7.296875,80374.0,271964.0,228181.0
7.30078125,80355.0,271984.0,228198.0
7.3046875,80399.0,271979.0,228164.0
7.30859375,80358.0,271992.0,228199.0
7.3125,80395.0,271984.0,228191.0
7.31640625,80430.0,272013.0,228188.0
7.3203125,80405.0,271985.0,228202.0
7.32421875,80424.0,271995.0,228179.0
7.328125,80436.0,271998.0,228201.0
7.33203125,80465.0,271998.0,228207.0
7.3359375,80464.0,271989.0,228185.0
7.33984375,80475.0,271981.0,228205.0
7.34375,80481.0,271993.0,228184.0
7.34765625,80491.0,271991.0,228211.0
7.3515625,80513.0,271980.0,228212.0
7.35546875,80521.0,271992.0,228195.0
7.359375,80540.0,271994.0,228213.0
7.36328125,80551.0,272009.0,228215.0
7.3671875,80525.0,271967.0,228218.0
7.37109375,80574.0,272005.0,228214.0
7.375,80583.0,271959.0,228210.0
7.37890625,80575.0,271984.0,228200.0
7.3828125,80605.0,271997.0,228210.0
7.38671875,80600.0,271990.0,228217.0
7.390625,80615.0,271992.0,228196.0
7.39453125,80641.0,272007.0,228239.0
7.3984375,80624.0,271994.0,228212.0
7.40234375,80634.0,271995.0,228226.0
7.40625,80650.0,271992.0,228218.0
7.41015625,80643.0,272016.0,228228.0
7.4140625,80682.0,271986.0,228216.0
7.41796875,80680.0,271988.0,228249.0
7.421875,80682.0,271993.0,228249.0
7.42578125,80716.0,271994.0,228235.0
7.4296875,80692.0,272014.0,228244.0
7.43359375,80727.0,271988.0,228227.0
7.4375,80742.0,272009.0,228235.0
7.44140625,80752.0,272014.0,228258.0
7.4453125,80778.0,272026.0,228245.0
7.44921875,80788.0,272017.0,228257.0
7.453125,80800.0,272012.0,228252.0
7.45703125,80801.0,272031.0,228261.0
7.4609375,80788.0,271994.0,228256.0
7.46484375,80806.0,271996.0,228255.0
7.46875,80838.0,271998.0,228266.0
7.47265625,80844.0,272029.0,228257.0
7.4765625,80835.0,271982.0,228258.0
7.48046875,80858.0,272006.0,228263.0
7.484375,80853.0,272037.0,228295.0
7.48828125,80889.0,272015.0,228271.0
7.4921875,80899.0,272028.0,228259.0
7.49609375,80873.0,272009.0,228272.0
7.5,80911.0,272044.0,228267.0
7.50390625,80919.0,272015.0,228287.0
7.5078125,80934.0,272043.0,228278.0
7.51171875,80944.0,272016.0,228277.0
7.515625,80981.0,272046.0,228303.0
7.51953125,80963.0,272007.0,228297.0
7.5234375,80966.0,272030.0,228294.0
7.52734375,81002.0,272018.0,228295.0
7.53125,81012.0,272023.0,228288.0
7.53515625,81018.0,272028.0,228291.0
7.5390625,81034.0,272027.0,228293.0
7.54296875,81050.0,272021.0,228291.0
7.546875,81056.0,272036.0,228289.0
7.55078125,81047.0,272029.0,228298.0
7.5546875,81068.0,272021.0,228300.0
7.55859375,81079.0,272018.0,228324.0
7.5625,81088.0,272057.0,228305.0
7.56640625,81118.0,272031.0,228305.0
7.5703125,81101.0,272026.0,228319.0
7.57421875,81116.0,272030.0,228282.0
7.578125,81155.0,272035.0,228309.0
7.58203125,81134.0,272028.0,228316.0
7.5859375,81153.0,272057.0,228326.0
7.58984375,81161.0,272013.0,228295.0
7.59375,81182.0,272042.0,228308.0
7.59765625,81202.0,272018.0,228332.0
7.6015625,81184.0,272020.0,228329.0
7.60546875,81193.0,272069.0,228294.0
7.609375,81213.0,272001.0,228311.0
7.61328125,81203.0,272023.0,228285.0
7.6171875,81187.0,272052.0,228300.0
7.62109375,81174.0,272003.0,228278.0
7.625,81164.0,271998.0,228273.0
7.62890625,81162.0,271995.0,228280.0
7.6328125,81135.0,272012.0,228254.0
7.63671875,81104.0,272017.0,228245.0
7.640625,81081.0,271988.0,228230.0
7.64453125,81052.0,271993.0,228253.0
7.6484375,81014.0,272024.0,228258.0
7.65234375,80975.0,272007.0,228246.0
7.65625,80911.0,271995.0,228219.0
7.66015625,80889.0,271988.0,228214.0
7.6640625,80833.0,271993.0,228211.0
7.66796875,80761.0,272008.0,228206.0
7.671875,80737.0,272002.0,228217.0
7.67578125,80674.0,272004.0,228195.0
7.6796875,80635.0,271981.0,228204.0
7.68359375,80609.0,272020.0,228172.0
7.6875,80515.0,271997.0,228161.0
7.69140625,80487.0,271987.0,228161.0
7.6953125,80440.0,272002.0,228168.0
7.69921875,80402.0,271984.0,228164.0
7.703125,80345.0,271994.0,228142.0
7.70703125,80292.0,271972.0,228142.0
7.7109375,80262.0,271972.0,228139.0
7.71484375,80216.0,271988.0,228145.0
7.71875,80183.0,271978.0,228141.0
7.72265625,80121.0,271997.0,228131.0
7.7265625,80097.0,271967.0,228118.0
7.73046875,80074.0,271976.0,228110.0
7.734375,80016.0,271959.0,228097.0
7.73828125,79988.0,271966.0,228105.0
7.7421875,79977.0,271972.0,228106.0
7.74609375,79931.0,271992.0,228100.0
7.75,79892.0,271952.0,228091.0
7.75390625,79897.0,271949.0,228108.0
7.7578125,79842.0,271955.0,228108.0
7.76171875,79832.0,271972.0,228092.0
7.765625,79820.0,271953.0,228093.0
7.76953125,79789.0,271934.0,228106.0
7.7734375,79770.0,271931.0,228085.0
7.77734375,79746.0,271953.0,228067.0
7.78125,79738.0,271981.0,228067.0
7.78515625,79687.0,271956.0,228087.0
7.7890625,79687.0,271928.0,228069.0
7.79296875,79669.0,271922.0,228073.0
7.796875,79668.0,271960.0,228083.0
7.80078125,79632.0,271970.0,228081.0
7.8046875,79636.0,271957.0,228103.0
7.80859375,79645.0,271937.0,228076.0
7.8125,79613.0,271946.0,228079.0
7.81640625,79584.0,271942.0,228077.0
7.8203125,79619.0,271931.0,228067.0
7.82421875,79587.0,271978.0,228065.0
7.828125,79603.0,271970.0,228061.0
7.83203125,79593.0,271939.0,228094.0
7.8359375,79590.0,271955.0,228086.0
7.83984375,79614.0,271978.0,228094.0
7.84375,79621.0,271967.0,228092.0
7.84765625,79607.0,271951.0,228104.0
7.8515625,79622.0,271943.0,228102.0
7.85546875,79620.0,271957.0,228093.0
7.859375,79655.0,271977.0,228105.0
7.86328125,79632.0,271977.0,228111.0
7.8671875,79671.0,271978.0,228113.0
7.87109375,79681.0,271965.0,228134.0
7.875,79686.0,271959.0,228106.0
7.87890625,79682.0,271953.0,228111.0
7.8828125,79700.0,271991.0,228110.0
7.88671875,79707.0,271965.0,228115.0
7.890625,79723.0,271959.0,228123.0
7.89453125,79734.0,271972.0,228108.0
7.8984375,79746.0,271990.0,228123.0
7.90234375,79752.0,271952.0,228120.0
7.90625,79750.0,271962.0,228124.0
7.91015625,79750.0,271976.0,228123.0
7.9140625,79792.0,271987.0,228135.0
7.91796875,79766.0,271965.0,228133.0
7.921875,79805.0,271976.0,228128.0
7.92578125,79790.0,271943.0,228114.0
7.9296875,79795.0,271974.0,228112.0
7.93359375,79809.0,271954.0,228108.0
7.9375,79812.0,271988.0,228123.0
7.94140625,79819.0,271983.0,228112.0
7.9453125,79811.0,271970.0,228117.0
7.94921875,79835.0,271962.0,228123.0
7.953125,79829.0,271968.0,228143.0
7.95703125,79806.0,271963.0,228128.0
7.9609375,79834.0,271946.0,228124.0
7.96484375,79827.0,271980.0,228122.0
7.96875,79846.0,271976.0,228135.0
7.97265625,79837.0,271959.0,228150.0
7.9765625,79841.0,271980.0,228119.0
7.98046875,79831.0,271972.0,228138.0
7.984375,79837.0,271958.0,228142.0
7.98828125,79858.0,272004.0,228112.0
7.9921875,79863.0,271970.0,228140.0
7.99609375,79898.0,271958.0,228099.0
8.0,79876.0,271982.0,228118.0
8.00390625,79874.0,271991.0,228145.0
8.0078125,79893.0,271965.0,228126.0
8.01171875,79884.0,271950.0,228133.0
8.015625,79887.0,271961.0,228132.0
8.01953125,79904.0,271968.0,228134.0
8.0234375,79917.0,271981.0,228138.0
8.02734375,79909.0,271970.0,228149.0
8.03125,79930.0,271984.0,228134.0
8.03515625,79936.0,271997.0,228152.0
8.0390625,79961.0,271966.0,228143.0
8.04296875,79969.0,271962.0,228144.0
8.046875,79967.0,271965.0,228149.0
8.05078125,79972.0,271988.0,228159.0
8.0546875,80000.0,271980.0,228146.0
8.05859375,80011.0,271982.0,228162.0
8.0625,80023.0,271984.0,228141.0
8.06640625,80037.0,271994.0,228174.0
8.0703125,80033.0,271986.0,228170.0
8.07421875,80057.0,271982.0,228156.0
8.078125,80057.0,271986.0,228169.0
8.08203125,80084.0,272008.0,228185.0
8.0859375,80105.0,271979.0,228167.0
8.08984375,80102.0,271980.0,228193.0
8.09375,80118.0,271992.0,228180.0
8.09765625,80119.0,271952.0,228175.0
8.1015625,80129.0,271963.0,228187.0
8.10546875,80144.0,271943.0,228203.0
8.109375,80163.0,271976.0,228194.0
8.11328125,80161.0,271979.0,228187.0
8.1171875,80172.0,271969.0,228204.0
8.12109375,80193.0,271966.0,228197.0
8.125,80197.0,271979.0,228213.0
8.12890625,80200.0,271972.0,228195.0
8.1328125,80201.0,271982.0,228216.0
8.13671875,80221.0,271974.0,228209.0
8.140625,80224.0,271988.0,228213.0
8.14453125,80246.0,271993.0,228188.0
8.1484375,80272.0,272012.0,228210.0
8.15234375,80264.0,272012.0,228222.0
8.15625,80299.0,271985.0,228193.0
8.16015625,80293.0,271997.0,228232.0
8.1640625,80313.0,272005.0,228230.0
8.16796875,80312.0,271997.0,228220.0
8.171875,80319.0,271971.0,228243.0
8.17578125,80348.0,272002.0,228219.0
8.1796875,80332.0,272003.0,228210.0
8.18359375,80364.0,271981.0,228236.0
8.1875,80361.0,272012.0,228237.0
8.19140625,80384.0,272016.0,228230.0
8.1953125,80406.0,271987.0,228233.0
8.19921875,80420.0,272005.0,228246.0
8.203125,80418.0,272001.0,228237.0
8.20703125,80420.0,272016.0,228257.0
8.2109375,80419.0,272036.0,228229.0
8.21484375,80438.0,271986.0,228249.0
8.21875,80422.0,271977.0,228250.0
8.22265625,80467.0,272001.0,228247.0
8.2265625,80491.0,272003.0,228277.0
8.23046875,80482.0,272021.0,228266.0
8.234375,80489.0,272004.0,228256.0
8.23828125,80505.0,272038.0,228275.0
8.2421875,80514.0,272021.0,228269.0
8.24609375,80513.0,272004.0,228254.0
8.25,80533.0,272019.0,228266.0
8.25390625,80558.0,271999.0,228282.0
8.2578125,80564.0,272039.0,228282.0
8.26171875,80569.0,272019.0,228275.0
8.265625,80607.0,272020.0,228297.0
8.26953125,80585.0,272029.0,228289.0
8.2734375,80606.0,272052.0,228276.0
8.27734375,80599.0,272029.0,228295.0
8.28125,80632.0,272012.0,228268.0
8.28515625,80657.0,272025.0,228293.0
8.2890625,80652.0,272044.0,228287.0
8.29296875,80657.0,272057.0,228317.0
8.296875,80672.0,272031.0,228316.0
8.30078125,80683.0,272035.0,228313.0
8.3046875,80724.0,272054.0,228308.0
8.30859375,80743.0,272057.0,228321.0
8.3125,80710.0,272037.0,228320.0
8.31640625,80731.0,272035.0,228327.0
8.3203125,80774.0,272043.0,228306.0
8.32421875,80772.0,272039.0,228319.0
8.328125,80797.0,272046.0,228309.0
8.33203125,80789.0,272038.0,228334.0
8.3359375,80798.0,272023.0,228320.0
8.33984375,80817.0,272053.0,228336.0
8.34375,80836.0,272035.0,228305.0
8.34765625,80846.0,272035.0,228303.0
8.3515625,80842.0,272041.0,228316.0
8.35546875,80838.0,272047.0,228341.0
8.359375,80842.0,272047.0,228338.0
8.36328125,80895.0,272025.0,228312.0
8.3671875,80873.0,272054.0,228307.0
8.37109375,80879.0,272039.0,228344.0
8.375,80928.0,272057.0,228327.0
8.37890625,80899.0,272053.0,228326.0
8.3828125,80925.0,272057.0,228338.0
8.38671875,80915.0,272068.0,228334.0
8.390625,80930.0,272052.0,228337.0
8.39453125,80958.0,272044.0,228336.0
8.3984375,80933.0,272055.0,228302.0
8.40234375,80910.0,272044.0,228333.0
8.40625,80923.0,272024.0,228327.0
8.41015625,80904.0,272040.0,228316.0
8.4140625,80908.0,272031.0,228302.0
8.41796875,80855.0,272061.0,228289.0
8.421875,80854.0,272034.0,228294.0
8.42578125,80825.0,272074.0,228289.0
8.4296875,80803.0,272003.0,228282.0
8.43359375,80745.0,272027.0,228287.0
8.4375,80725.0,272034.0,228256.0
8.44140625,80696.0,272033.0,228279.0
8.4453125,80649.0,272032.0,228235.0
8.44921875,80587.0,272034.0,228272.0
8.453125,80545.0,272008.0,228238.0
8.45703125,80485.0,272018.0,228237.0
8.4609375,80449.0,271991.0,228219.0
8.46484375,80417.0,272010.0,228218.0
8.46875,80337.0,271991.0,228216.0
8.47265625,80297.0,272042.0,228204.0
8.4765625,80238.0,271990.0,228212.0
8.48046875,80208.0,271998.0,228191.0
8.484375,80122.0,272018.0,228177.0
8.48828125,80105.0,271997.0,228193.0
8.4921875,80035.0,272020.0,228185.0
8.49609375,79987.0,272002.0,228173.0
8.5,79948.0,272001.0,228162.0
8.50390625,79919.0,271981.0,228172.0
8.5078125,79884.0,271993.0,228157.0
8.51171875,79841.0,271980.0,228150.0
8.515625,79790.0,272002.0,228158.0
8.51953125,79778.0,272000.0,228140.0
8.5234375,79741.0,271962.0,228147.0
8.52734375,79714.0,271986.0,228146.0
8.53125,79653.0,271967.0,228132.0
8.53515625,79647.0,272006.0,228145.0
8.5390625,79586.0,272002.0,228147.0
8.54296875,79589.0,271982.0,228143.0
8.546875,79572.0,271975.0,228104.0
8.55078125,79522.0,271987.0,228124.0
8.5546875,79526.0,271944.0,228114.0
8.55859375,79507.0,271982.0,228118.0
8.5625,79479.0,271983.0,228101.0
8.56640625,79457.0,271967.0,228117.0
8.5703125,79448.0,271972.0,228130.0
8.57421875,79400.0,271953.0,228107.0
8.578125,79411.0,271981.0,228108.0
8.58203125,79373.0,271978.0,228102.0
8.5859375,79361.0,271957.0,228114.0
8.58984375,79360.0,271963.0,228107.0
8.59375,79351.0,271961.0,228109.0
8.59765625,79319.0,271950.0,228110.0
8.6015625,79322.0,271954.0,228101.0
8.60546875,79293.0,271979.0,228104.0
8.609375,79307.0,271968.0,228093.0
8.61328125,79321.0,271987.0,228085.0
8.6171875,79305.0,271955.0,228078.0
8.62109375,79314.0,271939.0,228097.0
8.625,79329.0,271970.0,228120.0
8.62890625,79330.0,271972.0,228109.0
8.6328125,79340.0,271993.0,228111.0
8.63671875,79310.0,271950.0,228129.0
8.640625,79342.0,271974.0,228110.0
8.64453125,79345.0,271973.0,228125.0
8.6484375,79353.0,271949.0,228126.0
8.65234375,79376.0,271970.0,228124.0
8.65625,79404.0,271982.0,228121.0
8.66015625,79385.0,271980.0,228139.0
8.6640625,79395.0,271978.0,228129.0
8.66796875,79432.0,271969.0,228160.0
8.671875,79411.0,271965.0,228150.0
8.67578125,79441.0,271981.0,228158.0
8.6796875,79426.0,271962.0,228136.0
8.68359375,79449.0,271977.0,228135.0
8.6875,79452.0,271977.0,228163.0
8.69140625,79438.0,271991.0,228162.0
8.6953125,79457.0,271981.0,228149.0
8.69921875,79481.0,271967.0,228145.0
8.703125,79486.0,271973.0,228142.0
8.70703125,79478.0,271965.0,228156.0
8.7109375,79480.0,271967.0,228137.0
8.71484375,79479.0,271960.0,228146.0
8.71875,79507.0,271978.0,228137.0
8.72265625,79478.0,271931.0,228144.0
8.7265625,79487.0,271979.0,228147.0
8.73046875,79518.0,271964.0,228146.0
8.734375,79506.0,271964.0,228143.0
8.73828125,79494.0,271977.0,228145.0
8.7421875,79492.0,271966.0,228151.0
8.74609375,79514.0,271984.0,228128.0
8.75,79503.0,271948.0,228133.0
8.75390625,79491.0,271955.0,228146.0
8.7578125,79514.0,271953.0,228160.0
8.76171875,79544.0,271973.0,228146.0
8.765625,79527.0,271981.0,228114.0
8.76953125,79518.0,271970.0,228139.0
8.7734375,79547.0,271941.0,228195.0
8.77734375,79545.0,271954.0,228148.0
8.78125,79545.0,271956.0,228151.0
8.78515625,79554.0,271987.0,228142.0
8.7890625,79589.0,272009.0,228165.0
8.79296875,79594.0,271968.0,228182.0
8.796875,79568.0,271978.0,228172.0
8.80078125,79595.0,271972.0,228161.0
8.8046875,79593.0,271991.0,228172.0
8.80859375,79593.0,271987.0,228156.0
8.8125,79619.0,271971.0,228168.0
8.81640625,79605.0,272000.0,228187.0
8.8203125,79616.0,272001.0,228190.0
8.82421875,79652.0,271972.0,228198.0
8.828125,79645.0,271968.0,228164.0
8.83203125,79654.0,271958.0,228174.0
8.8359375,79654.0,271978.0,228174.0
8.83984375,79674.0,271978.0,228208.0
8.84375,79694.0,272016.0,228198.0
8.84765625,79703.0,271988.0,228197.0
8.8515625,79712.0,272005.0,228206.0
8.85546875,79697.0,271979.0,228199.0
8.859375,79726.0,272002.0,228213.0
8.86328125,79743.0,271991.0,228220.0
8.8671875,79775.0,271968.0,228198.0
8.87109375,79780.0,272006.0,228222.0
8.875,79773.0,272003.0,228220.0
8.87890625,79795.0,272022.0,228223.0
8.8828125,79809.0,272017.0,228235.0
8.88671875,79813.0,271995.0,228219.0
8.890625,79830.0,272007.0,228237.0
8.89453125,79840.0,272004.0,228235.0
8.8984375,79869.0,272006.0,228244.0
8.90234375,79866.0,271975.0,228240.0
8.90625,79858.0,271992.0,228257.0
8.91015625,79885.0,272007.0,228240.0
8.9140625,79902.0,271993.0,228240.0
8.91796875,79928.0,271993.0,228242.0
8.921875,79924.0,272006.0,228254.0
8.92578125,79934.0,272027.0,228251.0
8.9296875,79947.0,272012.0,228265.0
8.93359375,79962.0,272030.0,228267.0
8.9375,79978.0,272007.0,228253.0
8.94140625,79986.0,272028.0,228266.0
8.9453125,80017.0,272010.0,228268.0
8.94921875,79996.0,272016.0,228259.0
8.953125,80021.0,272015.0,228249.0
8.95703125,80025.0,271986.0,228255.0
8.9609375,80050.0,272016.0,228273.0
8.96484375,80067.0,272050.0,228268.0
8.96875,80053.0,272029.0,228283.0
8.97265625,80091.0,272022.0,228279.0
8.9765625,80087.0,272009.0,228277.0
8.98046875,80095.0,272007.0,228291.0
8.984375,80088.0,271994.0,228281.0
8.98828125,80140.0,271997.0,228292.0
8.9921875,80132.0,272019.0,228315.0
8.99609375,80127.0,272001.0,228289.0
9.0,80163.0,272021.0,228296.0
9.00390625,80164.0,272021.0,228307.0
9.0078125,80182.0,272040.0,228312.0
9.01171875,80179.0,272035.0,228330.0
9.015625,80193.0,272000.0,228310.0
9.01953125,80209.0,271998.0,228313.0
9.0234375,80218.0,272041.0,228303.0
9.02734375,80249.0,272029.0,228325.0
9.03125,80223.0,272024.0,228299.0
9.03515625,80264.0,272010.0,228316.0
9.0390625,80265.0,272019.0,228325.0
9.04296875,80280.0,272022.0,228314.0
9.046875,80278.0,272019.0,228318.0
9.05078125,80291.0,272009.0,228313.0
9.0546875,80307.0,272052.0,228323.0
9.05859375,80333.0,272021.0,228336.0
9.0625,80334.0,272020.0,228333.0
9.06640625,80353.0,272029.0,228313.0
9.0703125,80377.0,272031.0,228323.0
9.07421875,80380.0,272038.0,228319.0
9.078125,80370.0,272051.0,228335.0
9.08203125,80407.0,272032.0,228336.0
9.0859375,80426.0,272036.0,228329.0
9.08984375,80446.0,272053.0,228342.0
9.09375,80433.0,272059.0,228348.0
9.09765625,80452.0,272038.0,228350.0
9.1015625,80448.0,272031.0,228330.0
9.10546875,80486.0,272057.0,228360.0
9.109375,80500.0,272045.0,228332.0
9.11328125,80487.0,272037.0,228354.0
9.1171875,80512.0,272062.0,228348.0
9.12109375,80523.0,272060.0,228357.0
9.125,80531.0,272059.0,228356.0
9.12890625,80550.0,272063.0,228342.0
9.1328125,80555.0,272050.0,228354.0
9.13671875,80561.0,272064.0,228378.0
9.140625,80590.0,272053.0,228380.0
9.14453125,80583.0,272067.0,228379.0
9.1484375,80608.0,272069.0,228385.0
9.15234375,80617.0,272058.0,228376.0
9.15625,80622.0,272043.0,228374.0
9.16015625,80642.0,272061.0,228378.0
9.1640625,80638.0,272085.0,228369.0
9.16796875,80670.0,272033.0,228375.0
9.171875,80714.0,272045.0,228361.0
9.17578125,80683.0,272058.0,228355.0
9.1796875,80685.0,272069.0,228370.0
9.18359375,80707.0,272049.0,228378.0
9.1875,80682.0,272052.0,228357.0
9.19140625,80713.0,272041.0,228372.0
9.1953125,80718.0,272027.0,228351.0
9.19921875,80711.0,272042.0,228354.0
9.203125,80712.0,272048.0,228357.0
9.20703125,80664.0,272050.0,228330.0
9.2109375,80656.0,272040.0,228323.0
9.21484375,80640.0,272052.0,228335.0
9.21875,80630.0,272041.0,228305.0
9.22265625,80576.0,272029.0,228326.0
9.2265625,80535.0,272033.0,228309.0
9.23046875,80509.0,272026.0,228300.0
9.234375,80460.0,272024.0,228300.0
9.23828125,80425.0,272048.0,228282.0
9.2421875,80388.0,272046.0,228287.0
9.24609375,80340.0,272025.0,228266.0
9.25,80270.0,272042.0,228288.0
9.25390625,80220.0,272040.0,228257.0
9.2578125,80167.0,272027.0,228268.0
9.26171875,80128.0,272004.0,228249.0
9.265625,80084.0,272013.0,228238.0
9.26953125,80028.0,272018.0,228231.0
9.2734375,79958.0,271985.0,228239.0
9.27734375,79936.0,272004.0,228246.0
9.28125,79897.0,272014.0,228214.0
9.28515625,79800.0,272001.0,228227.0
9.2890625,79775.0,272008.0,228199.0
9.29296875,79701.0,272003.0,228197.0
9.296875,79685.0,272003.0,228212.0
9.30078125,79618.0,272002.0,228199.0
9.3046875,79587.0,272013.0,228181.0
9.30859375,79558.0,272000.0,228188.0
9.3125,79534.0,271989.0,228169.0
9.31640625,79511.0,272000.0,228182.0
9.3203125,79433.0,271990.0,228165.0
9.32421875,79420.0,272013.0,228173.0
9.328125,79401.0,271995.0,228181.0
9.33203125,79369.0,271981.0,228182.0
9.3359375,79361.0,271988.0,228157.0
9.33984375,79322.0,271980.0,228174.0
9.34375,79282.0,271975.0,228172.0
9.34765625,79285.0,271983.0,228130.0
9.3515625,79256.0,271970.0,228161.0
9.35546875,79229.0,271966.0,228144.0
9.359375,79213.0,271985.0,228147.0
9.36328125,79196.0,271981.0,228148.0
9.3671875,79173.0,271969.0,228137.0
9.37109375,79139.0,271959.0,228122.0
9.375,79148.0,271997.0,228129.0
9.37890625,79133.0,271973.0,228137.0
9.3828125,79117.0,271978.0,228125.0
9.38671875,79086.0,271990.0,228137.0
9.390625,79091.0,271991.0,228149.0
9.39453125,79108.0,271986.0,228143.0
9.3984375,79077.0,272011.0,228145.0
9.40234375,79086.0,271975.0,228163.0
9.40625,79075.0,271964.0,228152.0
9.41015625,79078.0,271971.0,228151.0
9.4140625,79084.0,271956.0,228185.0
9.41796875,79077.0,271986.0,228144.0
9.421875,79101.0,271963.0,228169.0
9.42578125,79118.0,271989.0,228173.0
9.4296875,79142.0,271977.0,228178.0
9.43359375,79110.0,272012.0,228181.0
9.4375,79128.0,271988.0,228180.0
9.44140625,79159.0,271994.0,228173.0
9.4453125,79166.0,271988.0,228176.0
9.44921875,79176.0,271989.0,228181.0
9.453125,79166.0,271956.0,228165.0
9.45703125,79187.0,271993.0,228163.0
9.4609375,79207.0,271969.0,228164.0
9.46484375,79200.0,272003.0,228184.0
9.46875,79229.0,271997.0,228176.0
9.47265625,79226.0,271994.0,228159.0
9.4765625,79249.0,272001.0,228191.0
9.48046875,79262.0,272000.0,228193.0
9.484375,79284.0,271969.0,228197.0
9.48828125,79275.0,271988.0,228187.0
9.4921875,79285.0,271994.0,228168.0
9.49609375,79280.0,272036.0,228203.0
9.5,79295.0,272003.0,228184.0
9.50390625,79320.0,272009.0,228181.0
9.5078125,79324.0,271998.0,228188.0
9.51171875,79326.0,272001.0,228206.0
9.515625,79327.0,272007.0,228185.0
9.51953125,79315.0,271996.0,228186.0
9.5234375,79347.0,272013.0,228186.0
9.52734375,79345.0,271987.0,228194.0
9.53125,79371.0,271975.0,228201.0
9.53515625,79369.0,271990.0,228214.0
9.5390625,79356.0,272011.0,228206.0
9.54296875,79362.0,271997.0,228202.0
9.546875,79391.0,271986.0,228208.0
9.55078125,79407.0,272020.0,228186.0
9.5546875,79396.0,272011.0,228198.0
9.55859375,79400.0,272004.0,228204.0
9.5625,79412.0,272001.0,228209.0
9.56640625,79434.0,271995.0,228193.0
9.5703125,79443.0,272008.0,228191.0
9.57421875,79447.0,272023.0,228186.0
9.578125,79464.0,272035.0,228201.0
9.58203125,79467.0,272017.0,228215.0
9.5859375,79491.0,272037.0,228203.0
9.58984375,79488.0,272027.0,228229.0
9.59375,79532.0,272003.0,228234.0
9.59765625,79529.0,272021.0,228213.0
9.6015625,79542.0,272024.0,228229.0
9.60546875,79562.0,272019.0,228233.0
9.609375,79582.0,272025.0,228218.0
9.61328125,79591.0,272018.0,228229.0
9.6171875,79589.0,272039.0,228208.0
9.62109375,79614.0,272048.0,228212.0
9.625,79628.0,272017.0,228226.0
9.62890625,79651.0,272042.0,228219.0
9.6328125,79632.0,272042.0,228243.0
9.63671875,79676.0,272029.0,228243.0
9.640625,79680.0,272052.0,228237.0
9.64453125,79700.0,272018.0,228253.0
9.6484375,79726.0,272026.0,228258.0
9.65234375,79763.0,272053.0,228248.0
9.65625,79757.0,272043.0,228245.0
9.66015625,79758.0,272059.0,228239.0
9.6640625,79793.0,272071.0,228259.0
9.66796875,79813.0,272029.0,228265.0
9.671875,79848.0,272052.0,228247.0
9.67578125,79857.0,272047.0,228268.0
9.6796875,79843.0,272057.0,228280.0
9.68359375,79904.0,272070.0,228289.0
9.6875,79898.0,272080.0,228268.0
9.69140625,79923.0,272061.0,228284.0
9.6953125,79954.0,272072.0,228295.0
9.69921875,79955.0,272073.0,228293.0
9.703125,79995.0,272059.0,228292.0
9.70703125,80000.0,272069.0,228304.0
9.7109375,80008.0,272082.0,228316.0
9.71484375,80033.0,272065.0,228308.0
9.71875,80054.0,272082.0,228308.0
9.72265625,80047.0,272069.0,228299.0
9.7265625,80060.0,272094.0,228327.0
9.73046875,80094.0,272091.0,228326.0
9.734375,80086.0,272090.0,228325.0
9.73828125,80117.0,272096.0,228336.0
9.7421875,80121.0,272082.0,228329.0
9.74609375,80163.0,272091.0,228318.0
9.75,80154.0,272073.0,228312.0
9.75390625,80185.0,272100.0,228325.0
9.7578125,80208.0,272083.0,228328.0
9.76171875,80208.0,272099.0,228329.0
9.765625,80238.0,272089.0,228333.0
9.76953125,80257.0,272090.0,228338.0
9.7734375,80277.0,272091.0,228327.0
9.77734375,80291.0,272085.0,228341.0
9.78125,80296.0,272081.0,228352.0
9.78515625,80310.0,272087.0,228350.0
9.7890625,80337.0,272065.0,228355.0
9.79296875,80346.0,272101.0,228356.0
9.796875,80354.0,272106.0,228351.0
9.80078125,80380.0,272114.0,228377.0
9.8046875,80375.0,272099.0,228362.0
9.80859375,80411.0,272100.0,228376.0
9.8125,80409.0,272119.0,228389.0
9.81640625,80447.0,272095.0,228385.0
9.8203125,80431.0,272106.0,228387.0
9.82421875,80438.0,272109.0,228377.0
9.828125,80472.0,272106.0,228399.0
9.83203125,80470.0,272062.0,228384.0
9.8359375,80502.0,272107.0,228389.0
9.83984375,80524.0,272086.0,228388.0
9.84375,80530.0,272088.0,228406.0
9.84765625,80550.0,272098.0,228401.0
9.8515625,80543.0,272110.0,228419.0
9.85546875,80556.0,272106.0,228398.0
9.859375,80583.0,272089.0,228416.0
9.86328125,80586.0,272119.0,228415.0
9.8671875,80603.0,272113.0,228420.0
9.87109375,80624.0,272121.0,228378.0
9.875,80614.0,272074.0,228383.0
9.87890625,80620.0,272100.0,228407.0
9.8828125,80664.0,272101.0,228416.0
9.88671875,80677.0,272108.0,228426.0
9.890625,80693.0,272102.0,228394.0
9.89453125,80691.0,272123.0,228395.0
9.8984375,80722.0,272151.0,228427.0
9.90234375,80702.0,272100.0,228409.0
9.90625,80745.0,272125.0,228411.0
9.91015625,80743.0,272112.0,228414.0
9.9140625,80741.0,272121.0,228417.0
9.91796875,80771.0,272086.0,228435.0
9.921875,80773.0,272117.0,228411.0
9.92578125,80806.0,272099.0,228413.0
9.9296875,80820.0,272099.0,228414.0
9.93359375,80833.0,272131.0,228415.0
9.9375,80838.0,272122.0,228417.0
9.94140625,80825.0,272119.0,228416.0
9.9453125,80850.0,272103.0,228406.0
9.94921875,80863.0,272132.0,228405.0
9.953125,80872.0,272122.0,228396.0
9.95703125,80895.0,272116.0,228396.0
9.9609375,80867.0,272102.0,228412.0
9.96484375,80860.0,272109.0,228395.0
9.96875,80878.0,272091.0,228406.0
9.97265625,80859.0,272131.0,228401.0
9.9765625,80823.0,272087.0,228373.0
9.98046875,80835.0,272082.0,228381.0
9.984375,80786.0,272083.0,228387.0
9.98828125,80770.0,272093.0,228364.0
9.9921875,80762.0,272091.0,228342.0
9.99609375,80760.0,272103.0,228361.0
10.0,80680.0,272113.0,228342.0
10.00390625,80656.0,272092.0,228343.0
10.0078125,80624.0,272072.0,228310.0
10.01171875,80583.0,272083.0,228304.0
10.015625,80571.0,272082.0,228318.0
10.01953125,80530.0,272081.0,228302.0
10.0234375,80461.0,272056.0,228301.0
10.02734375,80459.0,272080.0,228285.0
10.03125,80382.0,272080.0,228281.0
10.03515625,80355.0,272076.0,228260.0
10.0390625,80330.0,272074.0,228273.0
10.04296875,80276.0,272069.0,228275.0
10.046875,80273.0,272055.0,228275.0
10.05078125,80230.0,272059.0,228264.0
10.0546875,80215.0,272055.0,228256.0
10.05859375,80178.0,272089.0,228243.0
10.0625,80138.0,272056.0,228227.0
10.06640625,80115.0,272065.0,228242.0
10.0703125,80078.0,272076.0,228241.0
10.07421875,80072.0,272053.0,228223.0
10.078125,80036.0,272033.0,228239.0
10.08203125,80003.0,272053.0,228254.0
10.0859375,79996.0,272057.0,228245.0
10.08984375,79984.0,272064.0,228226.0
10.09375,79988.0,272060.0,228204.0
10.09765625,79969.0,272038.0,228231.0
10.1015625,79955.0,272057.0,228230.0
10.10546875,79922.0,272043.0,228209.0
10.109375,79937.0,272055.0,228210.0
10.11328125,79925.0,272049.0,228225.0
10.1171875,79931.0,272057.0,228209.0
10.12109375,79923.0,272030.0,228213.0
10.125,79898.0,272050.0,228208.0
10.12890625,79903.0,272058.0,228206.0
10.1328125,79879.0,272057.0,228217.0
10.13671875,79887.0,272024.0,228209.0
10.140625,79892.0,272038.0,228214.0
10.14453125,79890.0,272025.0,228213.0
10.1484375,79893.0,272070.0,228222.0
10.15234375,79885.0,272054.0,228214.0
10.15625,79874.0,272022.0,228218.0
10.16015625,79895.0,271997.0,228188.0
10.1640625,79891.0,272025.0,228227.0
10.16796875,79910.0,272039.0,228237.0
10.171875,79912.0,272030.0,228229.0
10.17578125,79910.0,272048.0,228214.0
10.1796875,79908.0,272023.0,228230.0
10.18359375,79924.0,272047.0,228241.0
10.1875,79943.0,272030.0,228230.0
10.19140625,79969.0,272038.0,228234.0
10.1953125,79954.0,272041.0,228229.0
10.19921875,79969.0,272028.0,228229.0
10.203125,79974.0,272043.0,228251.0
10.20703125,79991.0,272020.0,228241.0
10.2109375,80014.0,272035.0,228261.0
10.21484375,80037.0,272034.0,228254.0
10.21875,80054.0,272028.0,228239.0
10.22265625,80026.0,272027.0,228230.0
10.2265625,80056.0,272023.0,228248.0
10.23046875,80057.0,272048.0,228260.0
10.234375,80069.0,272033.0,228259.0
10.23828125,80103.0,272012.0,228244.0
10.2421875,80088.0,272020.0,228256.0
10.24609375,80098.0,272057.0,228251.0
10.25,80093.0,272017.0,228273.0
10.25390625,80114.0,272040.0,228251.0
10.2578125,80112.0,272015.0,228230.0
10.26171875,80127.0,272016.0,228236.0
10.265625,80132.0,272044.0,228255.0
10.26953125,80108.0,272014.0,228252.0
10.2734375,80166.0,272024.0,228249.0
10.27734375,80135.0,272045.0,228244.0
10.28125,80120.0,272051.0,228248.0
10.28515625,80150.0,272033.0,228270.0
10.2890625,80135.0,272044.0,228253.0
10.29296875,80131.0,272039.0,228251.0
10.296875,80154.0,272070.0,228259.0
10.30078125,80163.0,272036.0,228249.0
10.3046875,80161.0,272034.0,228262.0
10.30859375,80163.0,272016.0,228239.0
10.3125,80156.0,272034.0,228257.0
10.31640625,80140.0,272047.0,228248.0
10.3203125,80155.0,272012.0,228237.0
10.32421875,80176.0,272030.0,228248.0
10.328125,80162.0,272031.0,228235.0
10.33203125,80191.0,272028.0,228249.0
10.3359375,80181.0,272034.0,228250.0
10.33984375,80211.0,272035.0,228245.0
10.34375,80226.0,272022.0,228252.0
10.34765625,80210.0,272045.0,228273.0
10.3515625,80222.0,272032.0,228248.0
10.35546875,80235.0,272032.0,228273.0
10.359375,80268.0,272046.0,228255.0
10.36328125,80255.0,272076.0,228282.0
10.3671875,80257.0,272050.0,228256.0
10.37109375,80287.0,272040.0,228283.0
10.375,80298.0,272045.0,228283.0
10.37890625,80276.0,272032.0,228275.0
10.3828125,80306.0,272033.0,228290.0
10.38671875,80293.0,272055.0,228308.0
10.390625,80313.0,272038.0,228307.0
10.39453125,80313.0,272050.0,228288.0
10.3984375,80332.0,272016.0,228330.0
10.40234375,80365.0,272062.0,228318.0
10.40625,80385.0,272066.0,228317.0
10.41015625,80396.0,272034.0,228332.0
10.4140625,80416.0,272042.0,228344.0
10.41796875,80405.0,272071.0,228336.0
10.421875,80427.0,272066.0,228345.0
10.42578125,80440.0,272041.0,228323.0
10.4296875,80420.0,272068.0,228352.0
10.43359375,80423.0,272051.0,228350.0
10.4375,80479.0,272057.0,228339.0
10.44140625,80468.0,272055.0,228348.0
10.4453125,80471.0,272016.0,228351.0
10.44921875,80483.0,272044.0,228349.0
10.453125,80491.0,272066.0,228351.0
10.45703125,80497.0,272060.0,228335.0
10.4609375,80508.0,272050.0,228337.0
10.46484375,80539.0,272064.0,228353.0
10.46875,80539.0,272052.0,228359.0
10.47265625,80561.0,272067.0,228347.0
10.4765625,80545.0,272047.0,228375.0
10.48046875,80564.0,272075.0,228372.0
10.484375,80548.0,272078.0,228357.0
10.48828125,80575.0,272061.0,228363.0
10.4921875,80595.0,272048.0,228354.0
10.49609375,80608.0,272058.0,228349.0
10.5,80612.0,272071.0,228370.0
10.50390625,80590.0,272065.0,228354.0
10.5078125,80607.0,272036.0,228373.0
10.51171875,80637.0,272056.0,228367.0
10.515625,80654.0,272077.0,228374.0
10.51953125,80662.0,272065.0,228363.0
10.5234375,80652.0,272032.0,228371.0
10.52734375,80665.0,272046.0,228390.0
10.53125,80681.0,272060.0,228390.0
10.53515625,80704.0,272058.0,228388.0
10.5390625,80715.0,272025.0,228379.0
10.54296875,80720.0,272046.0,228387.0
10.546875,80725.0,272059.0,228410.0
10.55078125,80732.0,272045.0,228389.0
10.5546875,80758.0,272066.0,228397.0
10.55859375,80761.0,272066.0,228377.0
10.5625,80769.0,272052.0,228379.0
10.56640625,80791.0,272046.0,228403.0
10.5703125,80810.0,272070.0,228405.0
10.57421875,80802.0,272076.0,228387.0
10.578125,80799.0,272078.0,228416.0
10.58203125,80832.0,272068.0,228397.0
10.5859375,80842.0,272080.0,228408.0
10.58984375,80845.0,272071.0,228420.0
10.59375,80858.0,272070.0,228425.0
10.59765625,80875.0,272061.0,228401.0
10.6015625,80892.0,272089.0,228426.0
10.60546875,80876.0,272096.0,228398.0
10.609375,80886.0,272087.0,228434.0
10.61328125,80920.0,272084.0,228421.0
10.6171875,80913.0,272085.0,228419.0
10.62109375,80957.0,272081.0,228441.0
10.625,80923.0,272070.0,228424.0
10.62890625,80951.0,272074.0,228420.0
10.6328125,80950.0,272083.0,228435.0
10.63671875,80970.0,272043.0,228458.0
10.640625,80985.0,272070.0,228434.0
10.64453125,81011.0,272079.0,228428.0
10.6484375,80989.0,272081.0,228452.0
10.65234375,81028.0,272086.0,228436.0
10.65625,81018.0,272086.0,228449.0
10.66015625,81053.0,272085.0,228457.0
10.6640625,81027.0,272065.0,228425.0
10.66796875,81019.0,272063.0,228416.0
10.671875,81034.0,272074.0,228441.0
10.67578125,81032.0,272071.0,228433.0
10.6796875,81049.0,272061.0,228410.0
10.68359375,81025.0,272073.0,228435.0
10.6875,81011.0,272069.0,228434.0
10.69140625,81013.0,272055.0,228432.0
10.6953125,81024.0,272079.0,228399.0
10.69921875,80981.0,272042.0,228404.0
10.703125,80952.0,272042.0,228388.0
10.70703125,80935.0,272062.0,228380.0
10.7109375,80905.0,272068.0,228392.0
10.71484375,80886.0,272064.0,228356.0
10.71875,80835.0,272045.0,228362.0
10.72265625,80806.0,272037.0,228356.0
10.7265625,80772.0,272039.0,228342.0
10.73046875,80715.0,272042.0,228335.0
10.734375,80661.0,272011.0,228345.0
10.73828125,80626.0,272029.0,228319.0
10.7421875,80586.0,272011.0,228328.0
10.74609375,80521.0,272065.0,228306.0
10.75,80493.0,272031.0,228308.0
10.75390625,80461.0,272040.0,228333.0
10.7578125,80400.0,272048.0,228309.0
10.76171875,80362.0,272007.0,228305.0
10.765625,80319.0,272012.0,228287.0
10.76953125,80299.0,272024.0,228293.0
10.7734375,80231.0,272021.0,228275.0
10.77734375,80202.0,272011.0,228276.0
10.78125,80146.0,272006.0,228267.0
10.78515625,80103.0,272001.0,228301.0
10.7890625,80067.0,272029.0,228287.0
10.79296875,80053.0,272013.0,228248.0
10.796875,80043.0,271999.0,228244.0
10.80078125,80012.0,272010.0,228258.0
10.8046875,79967.0,272012.0,228267.0
10.80859375,79940.0,272018.0,228258.0
10.8125,79931.0,272020.0,228243.0
10.81640625,79925.0,272033.0,228239.0
10.8203125,79899.0,272036.0,228260.0
10.82421875,79895.0,272035.0,228235.0
10.828125,79866.0,272004.0,228235.0
10.83203125,79867.0,272001.0,228226.0
10.8359375,79814.0,272008.0,228247.0
10.83984375,79820.0,271988.0,228232.0
10.84375,79781.0,272005.0,228252.0
10.84765625,79779.0,272011.0,228237.0
10.8515625,79791.0,272019.0,228251.0
10.85546875,79793.0,272000.0,228237.0
10.859375,79777.0,271997.0,228242.0
10.86328125,79759.0,272018.0,228243.0
10.8671875,79727.0,272029.0,228245.0
10.87109375,79741.0,272003.0,228229.0
10.875,79731.0,272021.0,228253.0
10.87890625,79750.0,272020.0,228235.0
10.8828125,79727.0,271996.0,228247.0
10.88671875,79718.0,272005.0,228246.0
10.890625,79756.0,272003.0,228249.0
10.89453125,79752.0,272031.0,228248.0
10.8984375,79750.0,272013.0,228230.0
10.90234375,79744.0,272011.0,228266.0
10.90625,79773.0,271999.0,228258.0
10.91015625,79772.0,272010.0,228264.0
10.9140625,79799.0,272009.0,228254.0
10.91796875,79812.0,272020.0,228276.0
10.921875,79811.0,272017.0,228276.0
10.92578125,79834.0,272007.0,228280.0
10.9296875,79844.0,272009.0,228282.0
10.93359375,79843.0,272009.0,228274.0
10.9375,79883.0,272029.0,228268.0
10.94140625,79863.0,272030.0,228299.0
10.9453125,79909.0,272040.0,228291.0
10.94921875,79890.0,272020.0,228285.0
10.953125,79903.0,272030.0,228289.0
10.95703125,79909.0,272013.0,228287.0
10.9609375,79942.0,272056.0,228291.0
10.96484375,79933.0,272027.0,228296.0
10.96875,79934.0,272028.0,228303.0
10.97265625,79952.0,272037.0,228298.0
10.9765625,79941.0,272046.0,228286.0
10.98046875,79975.0,272034.0,228293.0
10.984375,79924.0,272011.0,228302.0
10.98828125,79980.0,272027.0,228327.0
10.9921875,79971.0,272011.0,228292.0
10.99609375,79983.0,272041.0,228295.0
11.0,79966.0,272029.0,228303.0
11.00390625,79981.0,272043.0,228302.0
11.0078125,79968.0,272043.0,228295.0
11.01171875,79956.0,272025.0,228315.0
11.015625,79992.0,272020.0,228292.0
11.01953125,79994.0,272023.0,228294.0
11.0234375,79990.0,272048.0,228314.0
11.02734375,80006.0,272041.0,228282.0
11.03125,80012.0,272024.0,228286.0
11.03515625,80015.0,272030.0,228300.0
11.0390625,80036.0,272022.0,228281.0
11.04296875,80045.0,272005.0,228274.0
11.046875,80018.0,272034.0,228282.0
11.05078125,80050.0,272015.0,228276.0
11.0546875,80038.0,272027.0,228293.0
11.05859375,80047.0,272019.0,228289.0
11.0625,80031.0,272007.0,228271.0
11.06640625,80048.0,272008.0,228273.0
11.0703125,80066.0,272004.0,228306.0
11.07421875,80084.0,271987.0,228301.0
11.078125,80085.0,272004.0,228289.0
11.08203125,80086.0,272004.0,228318.0
11.0859375,80127.0,272026.0,228312.0
11.08984375,80147.0,272028.0,228304.0
11.09375,80151.0,272011.0,228331.0
11.09765625,80141.0,272001.0,228314.0
11.1015625,80147.0,272041.0,228327.0
11.10546875,80184.0,272009.0,228331.0
11.109375,80199.0,272019.0,228354.0
11.11328125,80189.0,272042.0,228327.0
11.1171875,80229.0,272047.0,228340.0
11.12109375,80255.0,272016.0,228355.0
11.125,80254.0,272051.0,228341.0
11.12890625,80295.0,272027.0,228355.0
11.1328125,80283.0,272029.0,228346.0
11.13671875,80278.0,272040.0,228343.0
11.140625,80322.0,272039.0,228346.0
11.14453125,80328.0,272051.0,228374.0
11.1484375,80345.0,272045.0,228364.0
11.15234375,80351.0,272049.0,228387.0
11.15625,80365.0,272055.0,228377.0
11.16015625,80381.0,272043.0,228390.0
11.1640625,80385.0,272022.0,228373.0
11.16796875,80379.0,272041.0,228402.0
11.171875,80416.0,272040.0,228377.0
11.17578125,80426.0,272035.0,228397.0
11.1796875,80460.0,272051.0,228389.0
11.18359375,80471.0,272042.0,228376.0
11.1875,80473.0,272060.0,228371.0
11.19140625,80491.0,272071.0,228396.0
11.1953125,80505.0,272053.0,228401.0
11.19921875,80510.0,272037.0,228412.0
11.203125,80533.0,272027.0,228422.0
11.20703125,80538.0,272046.0,228393.0
11.2109375,80556.0,272068.0,228421.0
11.21484375,80551.0,272020.0,228406.0
11.21875,80576.0,272035.0,228422.0
11.22265625,80587.0,272054.0,228436.0
11.2265625,80588.0,272049.0,228434.0
11.23046875,80604.0,272051.0,228432.0
11.234375,80612.0,272034.0,228422.0
11.23828125,80652.0,272060.0,228418.0
11.2421875,80642.0,272064.0,228446.0
11.24609375,80642.0,272028.0,228459.0
11.25,80654.0,272067.0,228453.0
11.25390625,80664.0,272065.0,228441.0
11.2578125,80699.0,272052.0,228449.0
11.26171875,80733.0,272071.0,228461.0
11.265625,80714.0,272056.0,228430.0
11.26953125,80753.0,272062.0,228455.0
11.2734375,80725.0,272103.0,228477.0
11.27734375,80780.0,272093.0,228471.0
11.28125,80795.0,272073.0,228458.0
11.28515625,80799.0,272071.0,228468.0
11.2890625,80796.0,272056.0,228475.0
11.29296875,80804.0,272084.0,228492.0
11.296875,80815.0,272056.0,228474.0
11.30078125,80830.0,272097.0,228473.0
11.3046875,80859.0,272089.0,228481.0
11.30859375,80855.0,272075.0,228492.0
11.3125,80862.0,272060.0,228482.0
11.31640625,80886.0,272071.0,228452.0
11.3203125,80906.0,272080.0,228470.0
11.32421875,80925.0,272050.0,228490.0
11.328125,80927.0,272063.0,228486.0
11.33203125,80921.0,272087.0,228491.0
11.3359375,80945.0,272077.0,228490.0
11.33984375,80987.0,272106.0,228507.0
11.34375,80958.0,272100.0,228518.0
11.34765625,80997.0,272110.0,228498.0
11.3515625,80993.0,272074.0,228474.0
11.35546875,81015.0,272074.0,228506.0
11.359375,81042.0,272082.0,228509.0
11.36328125,81047.0,272091.0,228500.0
11.3671875,81049.0,272100.0,228493.0
11.37109375,81055.0,272093.0,228491.0
11.375,81064.0,272059.0,228513.0
11.37890625,81067.0,272064.0,228513.0
11.3828125,81103.0,272099.0,228494.0
11.38671875,81091.0,272055.0,228498.0
11.390625,81087.0,272105.0,228517.0
11.39453125,81110.0,272074.0,228494.0
11.3984375,81094.0,272105.0,228499.0
11.40234375,81095.0,272078.0,228500.0
11.40625,81114.0,272081.0,228495.0
11.41015625,81098.0,272084.0,228496.0
11.4140625,81101.0,272048.0,228475.0
11.41796875,81082.0,272051.0,228467.0
11.421875,81067.0,272099.0,228481.0
11.42578125,81026.0,272067.0,228453.0
11.4296875,81008.0,272084.0,228449.0
11.43359375,80996.0,272088.0,228421.0
11.4375,80930.0,272056.0,228416.0
11.44140625,80917.0,272049.0,228413.0
11.4453125,80881.0,272061.0,228442.0
11.44921875,80841.0,272040.0,228425.0
11.453125,80807.0,272022.0,228400.0
11.45703125,80753.0,272025.0,228404.0
11.4609375,80722.0,272053.0,228376.0
11.46484375,80672.0,272016.0,228383.0
11.46875,80602.0,272027.0,228351.0
11.47265625,80570.0,272036.0,228370.0
11.4765625,80527.0,272024.0,228366.0
11.48046875,80464.0,271990.0,228339.0
11.484375,80408.0,272028.0,228347.0
11.48828125,80398.0,272001.0,228347.0
11.4921875,80345.0,272036.0,228335.0
11.49609375,80307.0,272000.0,228334.0
11.5,80249.0,272001.0,228323.0
11.50390625,80229.0,272037.0,228321.0
11.5078125,80186.0,272001.0,228327.0
11.51171875,80119.0,271991.0,228325.0
11.515625,80126.0,272027.0,228332.0
11.51953125,80075.0,272005.0,228310.0
11.5234375,80054.0,272007.0,228316.0
11.52734375,80018.0,272003.0,228319.0
11.53125,79992.0,271996.0,228286.0
11.53515625,79979.0,271989.0,228292.0
11.5390625,79958.0,271994.0,228300.0
11.54296875,79930.0,272001.0,228295.0
11.546875,79912.0,271988.0,228308.0
11.55078125,79859.0,271999.0,228313.0
11.5546875,79853.0,271992.0,228286.0
11.55859375,79816.0,271993.0,228299.0
11.5625,79786.0,271991.0,228304.0
11.56640625,79810.0,271994.0,228278.0
11.5703125,79769.0,271993.0,228289.0
11.57421875,79751.0,271996.0,228288.0
11.578125,79763.0,271975.0,228278.0
11.58203125,79741.0,271981.0,228288.0
11.5859375,79731.0,271977.0,228275.0
11.58984375,79705.0,271990.0,228284.0
11.59375,79669.0,271984.0,228263.0
11.59765625,79698.0,272007.0,228261.0
11.6015625,79669.0,271935.0,228269.0
11.60546875,79670.0,271985.0,228251.0
11.609375,79663.0,271969.0,228265.0
11.61328125,79642.0,271991.0,228242.0
11.6171875,79642.0,271982.0,228263.0
11.62109375,79651.0,271967.0,228281.0
11.625,79673.0,271972.0,228275.0
11.62890625,79660.0,271988.0,228267.0
11.6328125,79675.0,271994.0,228269.0
11.63671875,79681.0,271988.0,228278.0
11.640625,79688.0,271971.0,228283.0
11.64453125,79710.0,272001.0,228306.0
11.6484375,79714.0,271977.0,228285.0
11.65234375,79714.0,271980.0,228290.0
11.65625,79744.0,271980.0,228303.0
11.66015625,79733.0,272013.0,228313.0
11.6640625,79756.0,271981.0,228331.0
11.66796875,79762.0,271965.0,228298.0
11.671875,79762.0,271954.0,228317.0
11.67578125,79809.0,271993.0,228338.0
11.6796875,79801.0,272004.0,228329.0
11.68359375,79790.0,271982.0,228316.0
11.6875,79835.0,271984.0,228318.0
11.69140625,79823.0,272004.0,228338.0
11.6953125,79797.0,271978.0,228331.0
11.69921875,79854.0,271995.0,228318.0
11.703125,79854.0,271980.0,228312.0
11.70703125,79861.0,271989.0,228305.0
11.7109375,79848.0,271973.0,228316.0
11.71484375,79877.0,271966.0,228323.0
11.71875,79870.0,271996.0,228299.0
11.72265625,79891.0,271996.0,228308.0
11.7265625,79892.0,271990.0,228308.0
11.73046875,79896.0,271973.0,228324.0
11.734375,79873.0,271952.0,228309.0
11.73828125,79918.0,271965.0,228303.0
11.7421875,79898.0,271983.0,228309.0
11.74609375,79872.0,271993.0,228311.0
11.75,79912.0,271991.0,228299.0
11.75390625,79879.0,271991.0,228300.0
11.7578125,79896.0,271975.0,228293.0
11.76171875,79931.0,271973.0,228304.0
11.765625,79933.0,271970.0,228305.0
11.76953125,79919.0,271965.0,228285.0
11.7734375,79940.0,271987.0,228291.0
11.77734375,79925.0,271953.0,228296.0
11.78125,79940.0,271961.0,228296.0
11.78515625,79934.0,271966.0,228289.0
11.7890625,79942.0,271975.0,228302.0
11.79296875,79931.0,271962.0,228290.0
11.796875,79959.0,271977.0,228293.0
11.80078125,79946.0,271952.0,228320.0
11.8046875,79954.0,271963.0,228275.0
11.80859375,79957.0,271968.0,228303.0
11.8125,79973.0,271952.0,228301.0
11.81640625,80007.0,271975.0,228292.0
11.8203125,80006.0,271961.0,228303.0
11.82421875,80018.0,271979.0,228285.0
11.828125,80022.0,271971.0,228317.0
11.83203125,80021.0,271956.0,228308.0
11.8359375,80036.0,271948.0,228315.0
11.83984375,80064.0,271986.0,228324.0
11.84375,80079.0,271977.0,228312.0
11.84765625,80079.0,271964.0,228351.0
11.8515625,80109.0,271961.0,228337.0
11.85546875,80097.0,271967.0,228323.0
11.859375,80121.0,271987.0,228329.0
11.86328125,80127.0,271988.0,228341.0
11.8671875,80140.0,271972.0,228328.0
11.87109375,80164.0,271960.0,228331.0
11.875,80168.0,271977.0,228343.0
11.87890625,80192.0,271980.0,228373.0
11.8828125,80198.0,271978.0,228361.0
11.88671875,80220.0,271974.0,228353.0
11.890625,80207.0,271994.0,228362.0
11.89453125,80213.0,272003.0,228362.0
11.8984375,80250.0,272000.0,228348.0
11.90234375,80270.0,271983.0,228361.0
11.90625,80262.0,271993.0,228340.0
11.91015625,80298.0,272012.0,228367.0
11.9140625,80303.0,272000.0,228363.0
11.91796875,80321.0,271987.0,228371.0
11.921875,80330.0,271988.0,228370.0
11.92578125,80319.0,271992.0,228360.0
11.9296875,80341.0,271991.0,228372.0
11.93359375,80350.0,271979.0,228376.0
11.9375,80348.0,272009.0,228375.0
11.94140625,80368.0,271994.0,228387.0
11.9453125,80365.0,271983.0,228378.0
11.94921875,80406.0,271982.0,228372.0
11.953125,80416.0,271984.0,228381.0
11.95703125,80411.0,271989.0,228384.0
11.9609375,80411.0,271965.0,228383.0
11.96484375,80430.0,272010.0,228383.0
11.96875,80453.0,271957.0,228391.0
11.97265625,80442.0,272002.0,228365.0
11.9765625,80491.0,271983.0,228361.0
11.98046875,80477.0,272002.0,228360.0
11.984375,80475.0,271963.0,228375.0
11.98828125,80499.0,271968.0,228344.0
11.9921875,80476.0,271941.0,228376.0
11.99609375,80513.0,272002.0,228373.0
12.0,80530.0,271986.0,228363.0
12.00390625,80533.0,271974.0,228364.0
12.0078125,80564.0,271961.0,228366.0
12.01171875,80558.0,271964.0,228349.0
12.015625,80544.0,271968.0,228375.0
12.01953125,80579.0,271944.0,228375.0
12.0234375,80597.0,271947.0,228354.0
12.02734375,80612.0,271991.0,228351.0
12.03125,80632.0,271930.0,228350.0
12.03515625,80632.0,271962.0,228374.0
12.0390625,80649.0,271964.0,228357.0
12.04296875,80678.0,271964.0,228374.0
12.046875,80667.0,271980.0,228376.0
12.05078125,80698.0,271959.0,228394.0
12.0546875,80707.0,271955.0,228375.0
12.05859375,80699.0,271984.0,228369.0
12.0625,80731.0,271956.0,228397.0
12.06640625,80733.0,271988.0,228393.0
12.0703125,80742.0,271980.0,228389.0
12.07421875,80749.0,271977.0,228387.0
12.078125,80769.0,271982.0,228401.0
12.08203125,80776.0,271955.0,228405.0
12.0859375,80815.0,271965.0,228393.0
12.08984375,80795.0,271978.0,228410.0
12.09375,80843.0,271966.0,228401.0
12.09765625,80835.0,271986.0,228411.0
12.1015625,80851.0,271961.0,228407.0
12.10546875,80857.0,271994.0,228401.0
12.109375,80864.0,271983.0,228429.0
12.11328125,80870.0,271969.0,228435.0
12.1171875,80877.0,271983.0,228433.0
12.12109375,80898.0,271964.0,228412.0
12.125,80895.0,272009.0,228438.0
12.12890625,80907.0,271986.0,228448.0
12.1328125,80933.0,271984.0,228455.0
12.13671875,80929.0,271997.0,228430.0
12.140625,80943.0,271996.0,228441.0
12.14453125,80933.0,271985.0,228457.0
12.1484375,80944.0,272013.0,228455.0
12.15234375,80920.0,271993.0,228436.0
12.15625,80902.0,271995.0,228449.0
12.16015625,80891.0,271990.0,228427.0
12.1640625,80867.0,271977.0,228446.0
12.16796875,80823.0,272032.0,228443.0
12.171875,80821.0,271982.0,228428.0
12.17578125,80805.0,271976.0,228445.0
12.1796875,80751.0,272009.0,228453.0
12.18359375,80716.0,272023.0,228445.0
12.1875,80666.0,272049.0,228437.0
12.19140625,80635.0,271987.0,228439.0
12.1953125,80573.0,272015.0,228434.0
12.19921875,80542.0,272004.0,228425.0
12.203125,80498.0,272022.0,228435.0
12.20703125,80466.0,272024.0,228416.0
12.2109375,80382.0,272018.0,228424.0
12.21484375,80342.0,272025.0,228412.0
12.21875,80303.0,272013.0,228394.0
12.22265625,80277.0,272005.0,228409.0
12.2265625,80204.0,272013.0,228386.0
12.23046875,80186.0,272010.0,228378.0
12.234375,80120.0,272019.0,228364.0
12.23828125,80105.0,272001.0,228368.0
12.2421875,80040.0,271999.0,228346.0
12.24609375,80021.0,271970.0,228360.0
12.25,79975.0,272030.0,228363.0
12.25390625,79919.0,271998.0,228318.0
12.2578125,79899.0,271987.0,228316.0
12.26171875,79870.0,271999.0,228319.0
12.265625,79838.0,272006.0,228332.0
12.26953125,79818.0,271976.0,228352.0
12.2734375,79779.0,271976.0,228307.0
12.27734375,79757.0,271940.0,228312.0
12.28125,79742.0,271995.0,228328.0
12.28515625,79707.0,271995.0,228323.0
12.2890625,79681.0,271978.0,228319.0
12.29296875,79670.0,271953.0,228324.0
12.296875,79663.0,271992.0,228333.0
12.30078125,79631.0,271976.0,228299.0
12.3046875,79613.0,271941.0,228316.0
12.30859375,79585.0,271985.0,228305.0
12.3125,79589.0,271998.0,228322.0
12.31640625,79559.0,271991.0,228331.0
12.3203125,79541.0,271988.0,228301.0
12.32421875,79531.0,271974.0,228315.0
12.328125,79531.0,271982.0,228302.0
12.33203125,79494.0,271985.0,228310.0
12.3359375,79494.0,271987.0,228298.0
12.33984375,79491.0,271965.0,228298.0
12.34375,79477.0,271996.0,228281.0
12.34765625,79471.0,271948.0,228310.0
12.3515625,79457.0,271963.0,228279.0
12.35546875,79478.0,271956.0,228288.0
12.359375,79475.0,271976.0,228284.0
12.36328125,79462.0,271956.0,228310.0
12.3671875,79481.0,271983.0,228313.0
12.37109375,79487.0,271958.0,228279.0
12.375,79492.0,271941.0,228282.0
12.37890625,79488.0,271923.0,228299.0
12.3828125,79500.0,271957.0,228286.0
12.38671875,79530.0,271967.0,228290.0
12.390625,79523.0,271945.0,228294.0
12.39453125,79521.0,271958.0,228302.0
12.3984375,79546.0,271964.0,228314.0
12.40234375,79539.0,271953.0,228318.0
12.40625,79548.0,271962.0,228329.0
12.41015625,79575.0,271947.0,228309.0
12.4140625,79558.0,271949.0,228341.0
12.41796875,79577.0,271969.0,228334.0
12.421875,79560.0,271966.0,228343.0
12.42578125,79608.0,271957.0,228317.0
12.4296875,79616.0,271933.0,228339.0
12.43359375,79601.0,271970.0,228335.0
12.4375,79625.0,271960.0,228326.0
12.44140625,79612.0,271971.0,228328.0
12.4453125,79610.0,271951.0,228363.0
12.44921875,79620.0,271958.0,228366.0
12.453125,79631.0,271972.0,228351.0
12.45703125,79627.0,271961.0,228344.0
12.4609375,79613.0,271963.0,228324.0
12.46484375,79625.0,271969.0,228350.0
12.46875,79630.0,271949.0,228358.0
12.47265625,79631.0,271959.0,228341.0
12.4765625,79635.0,271975.0,228343.0
12.48046875,79636.0,271964.0,228336.0
12.484375,79638.0,271963.0,228334.0
12.48828125,79643.0,271952.0,228310.0
12.4921875,79640.0,271974.0,228331.0
12.49609375,79656.0,271968.0,228355.0
12.5,79636.0,271935.0,228321.0
12.50390625,79649.0,271997.0,228321.0
12.5078125,79642.0,271983.0,228314.0
12.51171875,79675.0,271947.0,228304.0
12.515625,79653.0,271973.0,228345.0
12.51953125,79663.0,271945.0,228334.0
12.5234375,79670.0,271968.0,228326.0
12.52734375,79669.0,271942.0,228353.0
12.53125,79672.0,271949.0,228333.0
12.53515625,79678.0,271943.0,228338.0
12.5390625,79699.0,271951.0,228358.0
12.54296875,79673.0,271965.0,228364.0
12.546875,79691.0,271970.0,228364.0
12.55078125,79720.0,271976.0,228362.0
12.5546875,79698.0,271956.0,228364.0
12.55859375,79704.0,271948.0,228376.0
12.5625,79748.0,271984.0,228369.0
12.56640625,79743.0,271967.0,228372.0
12.5703125,79761.0,271986.0,228374.0
12.57421875,79762.0,271939.0,228366.0
12.578125,79778.0,271971.0,228359.0
12.58203125,79775.0,271953.0,228364.0
12.5859375,79772.0,271948.0,228383.0
12.58984375,79766.0,271964.0,228368.0
12.59375,79801.0,271957.0,228376.0
12.59765625,79796.0,271944.0,228369.0
12.6015625,79809.0,271964.0,228384.0
12.60546875,79846.0,271954.0,228373.0
12.609375,79833.0,271947.0,228358.0
12.61328125,79841.0,271949.0,228364.0
12.6171875,79854.0,271974.0,228389.0
12.62109375,79872.0,271946.0,228378.0
12.625,79876.0,271916.0,228385.0
12.62890625,79896.0,271952.0,228371.0
12.6328125,79897.0,271947.0,228388.0
12.63671875,79906.0,271956.0,228388.0
12.640625,79908.0,271955.0,228388.0
12.64453125,79940.0,271949.0,228405.0
12.6484375,79948.0,271958.0,228407.0
12.65234375,79951.0,271957.0,228398.0
12.65625,79947.0,271972.0,228401.0
12.66015625,79945.0,271936.0,228412.0
12.6640625,79982.0,271975.0,228389.0
12.66796875,80003.0,271959.0,228414.0
12.671875,80007.0,271973.0,228392.0
12.67578125,80006.0,271963.0,228388.0
12.6796875,80035.0,271983.0,228416.0
12.68359375,80060.0,271974.0,228403.0
12.6875,80061.0,271949.0,228417.0
12.69140625,80042.0,271969.0,228398.0
12.6953125,80069.0,271957.0,228399.0
12.69921875,80099.0,271981.0,228428.0
12.703125,80100.0,271949.0,228407.0
12.70703125,80099.0,271954.0,228421.0
12.7109375,80117.0,271980.0,228426.0
12.71484375,80100.0,271956.0,228415.0
12.71875,80145.0,271979.0,228426.0
12.72265625,80160.0,271975.0,228423.0
12.7265625,80180.0,271995.0,228421.0
12.73046875,80170.0,271986.0,228434.0
12.734375,80177.0,271977.0,228415.0
12.73828125,80184.0,271944.0,228419.0
12.7421875,80217.0,271941.0,228412.0
12.74609375,80212.0,271944.0,228448.0
12.75,80225.0,271972.0,228434.0
12.75390625,80229.0,271947.0,228430.0
12.7578125,80231.0,271951.0,228436.0
12.76171875,80268.0,271989.0,228439.0
12.765625,80279.0,271966.0,228444.0
12.76953125,80278.0,271948.0,228438.0
12.7734375,80304.0,271993.0,228444.0
12.77734375,80303.0,272003.0,228453.0
12.78125,80306.0,271976.0,228446.0
12.78515625,80327.0,271967.0,228467.0
12.7890625,80334.0,271958.0,228458.0
12.79296875,80351.0,271984.0,228457.0
12.796875,80364.0,271959.0,228450.0
12.80078125,80374.0,271968.0,228453.0
12.8046875,80381.0,271963.0,228476.0
12.80859375,80388.0,271952.0,228447.0
12.8125,80389.0,271943.0,228446.0
12.81640625,80410.0,271977.0,228450.0
12.8203125,80412.0,271971.0,228445.0
12.82421875,80412.0,271983.0,228467.0
12.828125,80449.0,271957.0,228450.0
12.83203125,80466.0,271997.0,228473.0
12.8359375,80477.0,271978.0,228463.0
12.83984375,80444.0,271976.0,228471.0
12.84375,80488.0,271996.0,228460.0
12.84765625,80505.0,272003.0,228469.0
12.8515625,80501.0,271980.0,228461.0
12.85546875,80507.0,271976.0,228458.0
12.859375,80516.0,271973.0,228460.0
12.86328125,80504.0,271998.0,228463.0
12.8671875,80537.0,271989.0,228465.0
12.87109375,80529.0,271968.0,228468.0
12.875,80506.0,271962.0,228443.0
12.87890625,80517.0,271964.0,228433.0
12.8828125,80525.0,271969.0,228449.0
12.88671875,80508.0,271945.0,228441.0
12.890625,80493.0,271946.0,228456.0
12.89453125,80496.0,271965.0,228419.0
12.8984375,80435.0,271981.0,228436.0
12.90234375,80438.0,271977.0,228399.0
12.90625,80402.0,271963.0,228406.0
12.91015625,80356.0,271943.0,228393.0
12.9140625,80330.0,271978.0,228393.0
12.91796875,80282.0,271961.0,228389.0
12.921875,80218.0,271961.0,228385.0
12.92578125,80194.0,271958.0,228376.0
12.9296875,80155.0,271953.0,228370.0
