time_s,Green,Red
0.0,81715.0,188733.0
0.00250243987888191,81744.0,221498.0
0.00500487975776382,81758.0,254101.0
0.007507319636645729,81773.0,273266.0
0.01000975951552764,81803.0,273116.0
0.012512199394409548,81839.0,273091.0
0.015014639273291459,81845.0,273111.0
0.01751707915217337,81881.0,273107.0
0.02001951903105528,81903.0,273092.0
0.022521958909937186,81920.0,273058.0
0.025024398788819097,81932.0,273074.0
0.027526838667701007,81936.0,273044.0
0.030029278546582917,81945.0,273034.0
0.032531718425464824,81967.0,273032.0
0.03503415830434674,81984.0,273044.0
0.037536598183228645,81994.0,273040.0
0.04003903806211056,82019.0,273043.0
0.042541477940992466,82022.0,273005.0
0.04504391781987437,82040.0,273017.0
0.047546357698756286,82047.0,273018.0
0.05004879757763819,82059.0,273012.0
0.05255123745652011,82096.0,273008.0
0.055053677335402014,82091.0,272970.0
0.05755611721428393,82076.0,272992.0
0.060058557093165835,82113.0,273000.0
0.06256099697204774,82115.0,272968.0
0.06506343685092965,82145.0,272969.0
0.06756587672981157,82118.0,272988.0
0.07006831660869348,82123.0,272978.0
0.07257075648757538,82150.0,272977.0
0.07507319636645729,82178.0,272967.0
0.0775756362453392,82162.0,272953.0
0.08007807612422112,82176.0,272960.0
0.08258051600310302,82197.0,272983.0
0.08508295588198493,82192.0,272950.0
0.08758539576086684,82180.0,272949.0
0.09008783563974875,82192.0,272943.0
0.09259027551863067,82214.0,272929.0
0.09509271539751257,82231.0,272946.0
0.09759515527639448,82225.0,272962.0
0.10009759515527639,82206.0,272928.0
0.10260003503415831,82228.0,272917.0
0.10510247491304021,82245.0,272939.0
0.10760491479192212,82235.0,272921.0
0.11010735467080403,82231.0,272930.0
0.11260979454968593,82238.0,272945.0
0.11511223442856786,82251.0,272930.0
0.11761467430744976,82250.0,272950.0
0.12011711418633167,82283.0,272930.0
0.12261955406521358,82262.0,272947.0
0.12512199394409548,82274.0,272920.0
0.1276244338229774,82278.0,272955.0
0.1301268737018593,82282.0,272958.0
0.13262931358074123,82305.0,272938.0
0.13513175345962314,82302.0,272957.0
0.13763419333850505,82301.0,272932.0
0.14013663321738695,82302.0,272950.0
0.14263907309626886,82318.0,272940.0
0.14514151297515077,82336.0,272930.0
0.14764395285403267,82350.0,272943.0
0.15014639273291458,82343.0,272969.0
0.1526488326117965,82345.0,272922.0
0.1551512724906784,82368.0,272952.0
0.15765371236956033,82355.0,272937.0
0.16015615224844224,82392.0,272929.0
0.16265859212732414,82382.0,272934.0
0.16516103200620605,82378.0,272937.0
0.16766347188508796,82385.0,272940.0
0.17016591176396986,82392.0,272908.0
0.17266835164285177,82392.0,272917.0
0.17517079152173368,82421.0,272935.0
0.17767323140061558,82422.0,272892.0
0.1801756712794975,82441.0,272939.0
0.18267811115837942,82437.0,272925.0
0.18518055103726133,82478.0,272924.0
0.18768299091614324,82461.0,272925.0
0.19018543079502515,82463.0,272903.0
0.19268787067390705,82492.0,272918.0
0.19519031055278896,82488.0,272921.0
0.19769275043167087,82520.0,272915.0
0.20019519031055277,82509.0,272934.0
0.20269763018943468,82516.0,272911.0
0.20520007006831661,82526.0,272912.0
0.20770250994719852,82558.0,272911.0
0.21020494982608043,82573.0,272912.0
0.21270738970496234,82575.0,272897.0
0.21520982958384424,82579.0,272908.0
0.21771226946272615,82573.0,272911.0
0.22021470934160806,82590.0,272880.0
0.22271714922048996,82623.0,272896.0
0.22521958909937187,82638.0,272880.0
0.22772202897825378,82647.0,272862.0
0.2302244688571357,82664.0,272857.0
0.23272690873601762,82667.0,272898.0
0.23522934861489952,82668.0,272884.0
0.23773178849378143,82668.0,272900.0
0.24023422837266334,82725.0,272897.0
0.24273666825154525,82708.0,272911.0
0.24523910813042715,82705.0,272876.0
0.24774154800930906,82731.0,272893.0
0.25024398788819097,82749.0,272898.0
0.2527464277670729,82739.0,272909.0
0.2552488676459548,82770.0,272900.0
0.2577513075248367,82772.0,272887.0
0.2602537474037186,82799.0,272912.0
0.26275618728260053,82807.0,272896.0
0.26525862716148246,82819.0,272885.0
0.26776106704036434,82813.0,272864.0
0.2702635069192463,82837.0,272869.0
0.27276594679812816,82859.0,272890.0
0.2752683866770101,82850.0,272876.0
0.27777082655589197,82850.0,272896.0
0.2802732664347739,82893.0,272905.0
0.2827757063136558,82913.0,272909.0
0.2852781461925377,82913.0,272909.0
0.2877805860714196,82922.0,272910.0
0.29028302595030153,82940.0,272919.0
0.29278546582918347,82946.0,272905.0
0.29528790570806535,82958.0,272874.0
0.2977903455869473,82981.0,272921.0
0.30029278546582916,82984.0,272901.0
0.3027952253447111,82983.0,272904.0
0.305297665223593,82990.0,272897.0
0.3078001051024749,82999.0,272901.0
0.3103025449813568,83026.0,272886.0
0.3128049848602387,83045.0,272874.0
0.31530742473912066,83034.0,272900.0
0.31780986461800254,83075.0,272908.0
0.32031230449688447,83085.0,272905.0
0.32281474437576635,83072.0,272914.0
0.3253171842546483,83118.0,272921.0
0.32781962413353016,83113.0,272920.0
0.3303220640124121,83098.0,272903.0
0.332824503891294,83128.0,272901.0
0.3353269437701759,83133.0,272897.0
0.33782938364905785,83161.0,272910.0
0.3403318235279397,83168.0,272914.0
0.34283426340682166,83187.0,272891.0
0.34533670328570354,83181.0,272894.0
0.3478391431645855,83194.0,272919.0
0.35034158304346735,83195.0,272915.0
0.3528440229223493,83226.0,272939.0
0.35534646280123117,83239.0,272928.0
0.3578489026801131,83247.0,272909.0
0.360351342558995,83261.0,272933.0
0.3628537824378769,83272.0,272936.0
0.36535622231675885,83264.0,272924.0
0.36785866219564073,83307.0,272916.0
0.37036110207452266,83329.0,272919.0
0.37286354195340454,83314.0,272918.0
0.3753659818322865,83329.0,272930.0
0.37786842171116836,83354.0,272900.0
0.3803708615900503,83363.0,272911.0
0.38287330146893217,83384.0,272906.0
0.3853757413478141,83392.0,272940.0
0.38787818122669604,83388.0,272926.0
0.3903806211055779,83397.0,272937.0
0.39288306098445985,83389.0,272912.0
0.39538550086334173,83431.0,272924.0
0.39788794074222367,83443.0,272931.0
0.40039038062110555,83463.0,272916.0
0.4028928204999875,83457.0,272936.0
0.40539526037886936,83470.0,272922.0
0.4078977002577513,83501.0,272917.0
0.41040014013663323,83512.0,272915.0
0.4129025800155151,83517.0,272925.0
0.41540501989439704,83550.0,272909.0
0.4179074597732789,83529.0,272904.0
0.42040989965216086,83559.0,272897.0
0.42291233953104274,83566.0,272890.0
0.42541477940992467,83597.0,272927.0
0.42791721928880655,83602.0,272910.0
0.4304196591676885,83608.0,272890.0
0.4329220990465704,83631.0,272900.0
0.4354245389254523,83625.0,272937.0
0.43792697880433423,83652.0,272929.0
0.4404294186832161,83651.0,272898.0
0.44293185856209805,83679.0,272928.0
0.4454342984409799,83688.0,272907.0
0.44793673831986186,83680.0,272896.0
0.45043917819874374,83706.0,272901.0
0.4529416180776257,83719.0,272893.0
0.45544405795650755,83728.0,272903.0
0.4579464978353895,83746.0,272923.0
0.4604489377142714,83779.0,272914.0
0.4629513775931533,83777.0,272915.0
0.46545381747203524,83766.0,272886.0
0.4679562573509171,83789.0,272886.0
0.47045869722979905,83797.0,272893.0
0.47296113710868093,83795.0,272907.0
0.47546357698756286,83807.0,272917.0
0.47796601686644474,83837.0,272888.0
0.4804684567453267,83831.0,272905.0
0.4829708966242086,83831.0,272917.0
0.4854733365030905,83860.0,272915.0
0.4879757763819724,83862.0,272928.0
0.4904782162608543,83815.0,272911.0
0.49298065613973624,83845.0,272921.0
0.4954830960186181,83856.0,272895.0
0.49798553589750005,83865.0,272916.0
0.5004879757763819,83848.0,272909.0
0.5029904156552638,83840.0,272901.0
0.5054928555341458,83832.0,272936.0
0.5079952954130277,83808.0,272895.0
0.5104977352919096,83814.0,272923.0
0.5130001751707916,83796.0,272933.0
0.5155026150496734,83774.0,272920.0
0.5180050549285553,83757.0,272899.0
0.5205074948074372,83758.0,272911.0
0.5230099346863192,83729.0,272915.0
0.5255123745652011,83710.0,272896.0
0.5280148144440829,83693.0,272905.0
0.5305172543229649,83632.0,272912.0
0.5330196942018468,83628.0,272901.0
0.5355221340807287,83592.0,272889.0
0.5380245739596106,83543.0,272902.0
0.5405270138384926,83519.0,272898.0
0.5430294537173744,83464.0,272914.0
0.5455318935962563,83451.0,272881.0
0.5480343334751382,83412.0,272922.0
0.5505367733540202,83385.0,272908.0
0.5530392132329021,83342.0,272900.0
0.5555416531117839,83294.0,272875.0
0.5580440929906659,83255.0,272903.0
0.5605465328695478,83233.0,272885.0
0.5630489727484297,83191.0,272886.0
0.5655514126273116,83167.0,272868.0
0.5680538525061936,83096.0,272907.0
0.5705562923850754,83061.0,272890.0
0.5730587322639573,83030.0,272878.0
0.5755611721428392,82986.0,272853.0
0.5780636120217212,82963.0,272886.0
0.5805660519006031,82926.0,272875.0
0.5830684917794849,82869.0,272888.0
0.5855709316583669,82833.0,272881.0
0.5880733715372488,82809.0,272873.0
0.5905758114161307,82761.0,272892.0
0.5930782512950126,82751.0,272874.0
0.5955806911738946,82705.0,272859.0
0.5980831310527764,82686.0,272849.0
0.6005855709316583,82668.0,272873.0
0.6030880108105403,82658.0,272864.0
0.6055904506894222,82640.0,272877.0
0.6080928905683041,82602.0,272880.0
0.610595330447186,82590.0,272886.0
0.6130977703260679,82552.0,272837.0
0.6156002102049498,82522.0,272871.0
0.6181026500838317,82507.0,272867.0
0.6206050899627136,82490.0,272853.0
0.6231075298415956,82465.0,272846.0
0.6256099697204774,82452.0,272856.0
0.6281124095993593,82433.0,272828.0
0.6306148494782413,82419.0,272856.0
0.6331172893571232,82391.0,272837.0
0.6356197292360051,82380.0,272841.0
0.638122169114887,82359.0,272827.0
0.6406246089937689,82354.0,272804.0
0.6431270488726508,82363.0,272805.0
0.6456294887515327,82348.0,272814.0
0.6481319286304146,82354.0,272811.0
0.6506343685092966,82344.0,272795.0
0.6531368083881784,82294.0,272791.0
0.6556392482670603,82301.0,272803.0
0.6581416881459423,82294.0,272816.0
0.6606441280248242,82272.0,272798.0
0.6631465679037061,82278.0,272829.0
0.665649007782588,82270.0,272811.0
0.6681514476614699,82231.0,272780.0
0.6706538875403518,82228.0,272785.0
0.6731563274192337,82239.0,272828.0
0.6756587672981157,82185.0,272789.0
0.6781612071769976,82216.0,272793.0
0.6806636470558795,82195.0,272785.0
0.6831660869347613,82195.0,272773.0
0.6856685268136433,82223.0,272794.0
0.6881709666925252,82209.0,272771.0
0.6906734065714071,82190.0,272782.0
0.693175846450289,82225.0,272787.0
0.695678286329171,82196.0,272780.0
0.6981807262080528,82195.0,272764.0
0.7006831660869347,82201.0,272775.0
0.7031856059658167,82203.0,272781.0
0.7056880458446986,82220.0,272793.0
0.7081904857235805,82219.0,272802.0
0.7106929256024623,82246.0,272794.0
0.7131953654813443,82239.0,272802.0
0.7156978053602262,82253.0,272803.0
0.7182002452391081,82275.0,272797.0
0.72070268511799,82254.0,272806.0
0.723205124996872,82259.0,272799.0
0.7257075648757538,82288.0,272783.0
0.7282100047546357,82311.0,272799.0
0.7307124446335177,82307.0,272786.0
0.7332148845123996,82330.0,272820.0
0.7357173243912815,82365.0,272798.0
0.7382197642701633,82349.0,272804.0
0.7407222041490453,82386.0,272817.0
0.7432246440279272,82405.0,272791.0
0.7457270839068091,82420.0,272797.0
0.7482295237856911,82431.0,272777.0
0.750731963664573,82446.0,272798.0
0.7532344035434548,82480.0,272800.0
0.7557368434223367,82458.0,272797.0
0.7582392833012187,82497.0,272806.0
0.7607417231801006,82500.0,272799.0
0.7632441630589825,82512.0,272815.0
0.7657466029378643,82528.0,272790.0
0.7682490428167463,82544.0,272805.0
0.7707514826956282,82562.0,272799.0
0.7732539225745101,82543.0,272795.0
0.7757563624533921,82557.0,272805.0
0.778258802332274,82587.0,272770.0
0.7807612422111558,82613.0,272803.0
0.7832636820900377,82602.0,272771.0
0.7857661219689197,82636.0,272782.0
0.7882685618478016,82615.0,272749.0
0.7907710017266835,82646.0,272763.0
0.7932734416055655,82642.0,272774.0
0.7957758814844473,82657.0,272774.0
0.7982783213633292,82656.0,272798.0
0.8007807612422111,82681.0,272771.0
0.8032832011210931,82688.0,272781.0
0.805785640999975,82700.0,272761.0
0.8082880808788568,82709.0,272753.0
0.8107905207577387,82700.0,272775.0
0.8132929606366207,82713.0,272761.0
0.8157954005155026,82729.0,272775.0
0.8182978403943845,82703.0,272768.0
0.8208002802732665,82763.0,272777.0
0.8233027201521483,82768.0,272764.0
0.8258051600310302,82775.0,272760.0
0.8283075999099121,82802.0,272763.0
0.8308100397887941,82773.0,272761.0
0.833312479667676,82782.0,272775.0
0.8358149195465578,82826.0,272801.0
0.8383173594254397,82830.0,272768.0
0.8408197993043217,82832.0,272786.0
0.8433222391832036,82838.0,272786.0
0.8458246790620855,82849.0,272766.0
0.8483271189409675,82881.0,272791.0
0.8508295588198493,82901.0,272758.0
0.8533319986987312,82876.0,272785.0
0.8558344385776131,82924.0,272777.0
0.8583368784564951,82944.0,272754.0
0.860839318335377,82918.0,272773.0
0.8633417582142588,82938.0,272777.0
0.8658441980931408,82933.0,272777.0
0.8683466379720227,82965.0,272763.0
0.8708490778509046,82982.0,272776.0
0.8733515177297865,82998.0,272774.0
0.8758539576086685,82992.0,272760.0
0.8783563974875503,83030.0,272794.0
0.8808588373664322,83056.0,272765.0
0.8833612772453141,83071.0,272782.0
0.8858637171241961,83106.0,272769.0
0.888366157003078,83118.0,272800.0
0.8908685968819599,83137.0,272799.0
0.8933710367608418,83150.0,272767.0
0.8958734766397237,83158.0,272787.0
0.8983759165186056,83196.0,272791.0
0.9008783563974875,83177.0,272778.0
0.9033807962763695,83197.0,272808.0
0.9058832361552513,83197.0,272803.0
0.9083856760341332,83234.0,272823.0
0.9108881159130151,83241.0,272802.0
0.9133905557918971,83271.0,272838.0
0.915892995670779,83269.0,272804.0
0.9183954355496609,83273.0,272815.0
0.9208978754285428,83318.0,272812.0
0.9234003153074247,83317.0,272795.0
0.9259027551863066,83337.0,272793.0
0.9284051950651885,83338.0,272812.0
0.9309076349440705,83351.0,272794.0
0.9334100748229524,83413.0,272815.0
0.9359125147018342,83388.0,272805.0
0.9384149545807162,83395.0,272786.0
0.9409173944595981,83442.0,272810.0
0.94341983433848,83431.0,272794.0
0.9459222742173619,83439.0,272812.0
0.9484247140962438,83471.0,272810.0
0.9509271539751257,83479.0,272814.0
0.9534295938540076,83476.0,272798.0
0.9559320337328895,83524.0,272794.0
0.9584344736117715,83528.0,272806.0
0.9609369134906534,83561.0,272806.0
0.9634393533695352,83579.0,272814.0
0.9659417932484172,83583.0,272804.0
0.9684442331272991,83584.0,272797.0
0.970946673006181,83597.0,272804.0
0.9734491128850629,83616.0,272818.0
0.9759515527639449,83656.0,272822.0
0.9784539926428267,83665.0,272805.0
0.9809564325217086,83672.0,272817.0
0.9834588724005905,83699.0,272815.0
0.9859613122794725,83705.0,272828.0
0.9884637521583544,83724.0,272821.0
0.9909661920372362,83756.0,272837.0
0.9934686319161182,83756.0,272824.0
0.9959710717950001,83744.0,272827.0
0.998473511673882,83761.0,272808.0
1.0009759515527639,83781.0,272805.0
1.0034783914316459,83806.0,272828.0
1.0059808313105276,83814.0,272853.0
1.0084832711894096,83829.0,272827.0
1.0109857110682916,83838.0,272828.0
1.0134881509471734,83873.0,272842.0
1.0159905908260554,83877.0,272832.0
1.0184930307049374,83876.0,272840.0
1.0209954705838191,83898.0,272834.0
1.023497910462701,83931.0,272842.0
1.026000350341583,83925.0,272851.0
1.0285027902204649,83951.0,272840.0
1.0310052300993469,83961.0,272852.0
1.0335076699782286,83964.0,272840.0
1.0360101098571106,83988.0,272814.0
1.0385125497359926,83992.0,272857.0
1.0410149896148744,84007.0,272871.0
1.0435174294937564,84022.0,272870.0
1.0460198693726384,84059.0,272851.0
1.0485223092515201,84038.0,272845.0
1.0510247491304021,84060.0,272833.0
1.053527189009284,84074.0,272849.0
1.0560296288881659,84089.0,272825.0
1.0585320687670479,84095.0,272875.0
1.0610345086459299,84090.0,272858.0
1.0635369485248116,84132.0,272837.0
1.0660393884036936,84134.0,272840.0
1.0685418282825754,84130.0,272861.0
1.0710442681614574,84140.0,272848.0
1.0735467080403394,84155.0,272857.0
1.0760491479192211,84155.0,272864.0
1.0785515877981031,84200.0,272875.0
1.081054027676985,84196.0,272851.0
1.0835564675558669,84213.0,272880.0
1.0860589074347489,84223.0,272868.0
1.0885613473136309,84233.0,272881.0
1.0910637871925126,84257.0,272878.0
1.0935662270713946,84256.0,272871.0
1.0960686669502764,84279.0,272889.0
1.0985711068291584,84272.0,272848.0
1.1010735467080404,84297.0,272846.0
1.1035759865869221,84329.0,272858.0
1.1060784264658041,84313.0,272858.0
1.1085808663446861,84322.0,272863.0
1.1110833062235679,84335.0,272862.0
1.1135857461024499,84331.0,272878.0
1.1160881859813319,84392.0,272880.0
1.1185906258602136,84399.0,272854.0
1.1210930657390956,84404.0,272850.0
1.1235955056179774,84449.0,272842.0
1.1260979454968594,84428.0,272856.0
1.1286003853757414,84444.0,272888.0
1.1311028252546231,84472.0,272860.0
1.1336052651335051,84486.0,272885.0
1.1361077050123871,84459.0,272864.0
1.1386101448912689,84494.0,272860.0
1.1411125847701509,84499.0,272861.0
1.1436150246490329,84523.0,272868.0
1.1461174645279146,84541.0,272869.0
1.1486199044067966,84557.0,272862.0
1.1511223442856784,84547.0,272873.0
1.1536247841645604,84576.0,272865.0
1.1561272240434424,84588.0,272920.0
1.1586296639223241,84580.0,272872.0
1.1611321038012061,84582.0,272882.0
1.1636345436800881,84604.0,272881.0
1.1661369835589699,84620.0,272844.0
1.1686394234378519,84638.0,272852.0
1.1711418633167339,84635.0,272852.0
1.1736443031956156,84638.0,272856.0
1.1761467430744976,84665.0,272873.0
1.1786491829533796,84681.0,272870.0
1.1811516228322614,84687.0,272877.0
1.1836540627111434,84714.0,272855.0
1.1861565025900251,84695.0,272853.0
1.1886589424689071,84750.0,272858.0
1.1911613823477891,84742.0,272886.0
1.193663822226671,84755.0,272868.0
1.1961662621055529,84773.0,272851.0
1.1986687019844349,84757.0,272886.0
1.2011711418633166,84758.0,272852.0
1.2036735817421986,84795.0,272869.0
1.2061760216210806,84804.0,272861.0
1.2086784614999624,84818.0,272850.0
1.2111809013788444,84818.0,272889.0
1.2136833412577261,84834.0,272877.0
1.2161857811366081,84861.0,272866.0
1.2186882210154901,84847.0,272899.0
1.221190660894372,84850.0,272843.0
1.2236931007732539,84861.0,272872.0
1.2261955406521359,84895.0,272865.0
1.2286979805310176,84903.0,272918.0
1.2312004204098996,84875.0,272872.0
1.2337028602887816,84909.0,272825.0
1.2362053001676634,84940.0,272861.0
1.2387077400465454,84953.0,272832.0
1.2412101799254271,84926.0,272861.0
1.2437126198043091,84932.0,272863.0
1.2462150596831911,84936.0,272885.0
1.248717499562073,84923.0,272859.0
1.2512199394409549,84944.0,272849.0
1.2537223793198369,84941.0,272839.0
1.2562248191987186,84935.0,272854.0
1.2587272590776006,84922.0,272836.0
1.2612296989564826,84924.0,272852.0
1.2637321388353644,84890.0,272858.0
1.2662345787142464,84902.0,272833.0
1.2687370185931282,84892.0,272837.0
1.2712394584720101,84878.0,272836.0
1.2737418983508921,84848.0,272840.0
1.276244338229774,84832.0,272811.0
1.278746778108656,84792.0,272830.0
1.2812492179875379,84805.0,272857.0
1.2837516578664196,84780.0,272841.0
1.2862540977453016,84735.0,272819.0
1.2887565376241836,84730.0,272826.0
1.2912589775030654,84689.0,272803.0
1.2937614173819474,84651.0,272841.0
1.2962638572608292,84603.0,272819.0
1.2987662971397111,84600.0,272822.0
1.3012687370185931,84597.0,272840.0
1.303771176897475,84560.0,272815.0
1.306273616776357,84511.0,272816.0
1.3087760566552389,84495.0,272788.0
1.3112784965341207,84446.0,272821.0
1.3137809364130026,84427.0,272804.0
1.3162833762918846,84407.0,272831.0
1.3187858161707664,84337.0,272840.0
1.3212882560496484,84304.0,272805.0
1.3237906959285304,84310.0,272814.0
1.3262931358074121,84248.0,272813.0
1.3287955756862941,84212.0,272837.0
1.331298015565176,84193.0,272831.0
1.333800455444058,84177.0,272806.0
1.3363028953229399,84138.0,272787.0
1.3388053352018217,84106.0,272797.0
1.3413077750807036,84074.0,272796.0
1.3438102149595856,84052.0,272783.0
1.3463126548384674,84012.0,272804.0
1.3488150947173494,83976.0,272812.0
1.3513175345962314,83971.0,272796.0
1.3538199744751132,83925.0,272778.0
1.3563224143539951,83901.0,272827.0
1.358824854232877,83895.0,272797.0
1.361327294111759,83867.0,272800.0
1.363829733990641,83843.0,272789.0
1.3663321738695227,83837.0,272788.0
1.3688346137484046,83796.0,272804.0
1.3713370536272866,83769.0,272766.0
1.3738394935061684,83739.0,272808.0
1.3763419333850504,83729.0,272786.0
1.3788443732639324,83728.0,272780.0
1.3813468131428142,83696.0,272790.0
1.3838492530216961,83668.0,272800.0
1.386351692900578,83662.0,272777.0
1.38885413277946,83639.0,272796.0
1.391356572658342,83612.0,272794.0
1.3938590125372237,83608.0,272761.0
1.3963614524161057,83586.0,272766.0
1.3988638922949876,83595.0,272782.0
1.4013663321738694,83541.0,272776.0
1.4038687720527514,83552.0,272766.0
1.4063712119316334,83532.0,272781.0
1.4088736518105152,83525.0,272805.0
1.4113760916893971,83509.0,272769.0
1.413878531568279,83484.0,272790.0
1.416380971447161,83483.0,272759.0
1.418883411326043,83437.0,272770.0
1.4213858512049247,83449.0,272788.0
1.4238882910838067,83436.0,272778.0
1.4263907309626886,83414.0,272770.0
1.4288931708415704,83410.0,272770.0
1.4313956107204524,83410.0,272764.0
1.4338980505993344,83412.0,272782.0
1.4364004904782162,83406.0,272777.0
1.4389029303570982,83384.0,272767.0
1.44140537023598,83350.0,272781.0
1.443907810114862,83353.0,272809.0
1.446410249993744,83347.0,272791.0
1.4489126898726257,83312.0,272771.0
1.4514151297515077,83303.0,272765.0
1.4539175696303897,83306.0,272764.0
1.4564200095092714,83320.0,272774.0
1.4589224493881534,83323.0,272743.0
1.4614248892670354,83303.0,272754.0
1.4639273291459172,83335.0,272789.0
1.4664297690247992,83328.0,272776.0
1.4689322089036811,83329.0,272760.0
1.471434648782563,83309.0,272774.0
1.473937088661445,83322.0,272772.0
1.4764395285403267,83321.0,272755.0
1.4789419684192087,83341.0,272769.0
1.4814444082980907,83326.0,272754.0
1.4839468481769724,83339.0,272767.0
1.4864492880558544,83352.0,272778.0
1.4889517279347364,83372.0,272777.0
1.4914541678136182,83381.0,272798.0
1.4939566076925002,83355.0,272758.0
1.4964590475713822,83378.0,272771.0
1.498961487450264,83391.0,272781.0
1.501463927329146,83414.0,272783.0
1.5039663672080277,83397.0,272787.0
1.5064688070869097,83426.0,272770.0
1.5089712469657917,83409.0,272772.0
1.5114736868446734,83420.0,272782.0
1.5139761267235554,83442.0,272769.0
1.5164785666024374,83474.0,272800.0
1.5189810064813192,83455.0,272798.0
1.5214834463602012,83478.0,272801.0
1.5239858862390832,83495.0,272764.0
1.526488326117965,83471.0,272728.0
1.528990765996847,83488.0,272808.0
1.5314932058757287,83504.0,272787.0
1.5339956457546107,83504.0,272787.0
1.5364980856334927,83526.0,272759.0
1.5390005255123744,83534.0,272757.0
1.5415029653912564,83509.0,272784.0
1.5440054052701384,83530.0,272784.0
1.5465078451490202,83526.0,272793.0
1.5490102850279022,83549.0,272784.0
1.5515127249067842,83553.0,272792.0
1.554015164785666,83547.0,272787.0
1.556517604664548,83550.0,272772.0
1.5590200445434297,83560.0,272784.0
1.5615224844223117,83577.0,272760.0
1.5640249243011937,83596.0,272767.0
1.5665273641800754,83587.0,272788.0
1.5690298040589574,83576.0,272776.0
1.5715322439378394,83608.0,272769.0
1.5740346838167212,83599.0,272771.0
1.5765371236956032,83601.0,272794.0
1.5790395635744852,83613.0,272807.0
1.581542003453367,83600.0,272789.0
1.584044443332249,83612.0,272802.0
1.586546883211131,83620.0,272815.0
1.5890493230900127,83632.0,272771.0
1.5915517629688947,83647.0,272812.0
1.5940542028477764,83639.0,272786.0
1.5965566427266584,83650.0,272781.0
1.5990590826055404,83652.0,272788.0
1.6015615224844222,83640.0,272785.0
1.6040639623633042,83659.0,272788.0
1.6065664022421862,83638.0,272784.0
1.609068842121068,83677.0,272781.0
1.61157128199995,83683.0,272771.0
1.614073721878832,83687.0,272747.0
1.6165761617577137,83694.0,272767.0
1.6190786016365957,83681.0,272784.0
1.6215810415154774,83701.0,272770.0
1.6240834813943594,83703.0,272788.0
1.6265859212732414,83706.0,272775.0
1.6290883611521232,83713.0,272744.0
1.6315908010310052,83720.0,272797.0
1.6340932409098872,83725.0,272746.0
1.636595680788769,83725.0,272759.0
1.639098120667651,83731.0,272747.0
1.641600560546533,83758.0,272761.0
1.6441030004254147,83734.0,272765.0
1.6466054403042967,83751.0,272755.0
1.6491078801831784,83774.0,272776.0
1.6516103200620604,83771.0,272785.0
1.6541127599409424,83779.0,272722.0
1.6566151998198242,83770.0,272806.0
1.6591176396987062,83785.0,272751.0
1.6616200795775882,83789.0,272758.0
1.66412251945647,83792.0,272769.0
1.666624959335352,83822.0,272761.0
1.669127399214234,83811.0,272762.0
1.6716298390931157,83843.0,272761.0
1.6741322789719977,83837.0,272746.0
1.6766347188508794,83833.0,272773.0
1.6791371587297614,83818.0,272770.0
1.6816395986086434,83860.0,272752.0
1.6841420384875252,83844.0,272757.0
1.6866444783664072,83845.0,272739.0
1.6891469182452892,83853.0,272751.0
1.691649358124171,83846.0,272774.0
1.694151798003053,83881.0,272757.0
1.696654237881935,83879.0,272752.0
1.6991566777608167,83880.0,272758.0
1.7016591176396987,83908.0,272762.0
1.7041615575185804,83908.0,272738.0
1.7066639973974624,83915.0,272766.0
1.7091664372763444,83943.0,272768.0
1.7116688771552262,83941.0,272786.0
1.7141713170341082,83958.0,272789.0
1.7166737569129902,83941.0,272762.0
1.719176196791872,83976.0,272770.0
1.721678636670754,83961.0,272761.0
1.724181076549636,83963.0,272739.0
1.7266835164285177,84001.0,272765.0
1.7291859563073997,84021.0,272772.0
1.7316883961862817,84016.0,272788.0
1.7341908360651634,84035.0,272770.0
1.7366932759440454,84029.0,272775.0
1.7391957158229272,84050.0,272764.0
1.7416981557018092,84033.0,272788.0
1.7442005955806912,84056.0,272753.0
1.746703035459573,84079.0,272798.0
1.749205475338455,84081.0,272772.0
1.751707915217337,84088.0,272766.0
1.7542103550962187,84080.0,272786.0
1.7567127949751007,84097.0,272800.0
1.7592152348539827,84106.0,272790.0
1.7617176747328644,84130.0,272807.0
1.7642201146117464,84127.0,272781.0
1.7667225544906282,84142.0,272793.0
1.7692249943695102,84153.0,272796.0
1.7717274342483922,84182.0,272785.0
1.774229874127274,84194.0,272803.0
1.776732314006156,84185.0,272793.0
1.779234753885038,84186.0,272825.0
1.7817371937639197,84195.0,272810.0
1.7842396336428017,84185.0,272826.0
1.7867420735216837,84226.0,272801.0
1.7892445134005655,84224.0,272793.0
1.7917469532794474,84217.0,272800.0
1.7942493931583292,84231.0,272824.0
1.7967518330372112,84251.0,272797.0
1.7992542729160932,84268.0,272820.0
1.801756712794975,84262.0,272826.0
1.804259152673857,84277.0,272802.0
1.806761592552739,84288.0,272775.0
1.8092640324316207,84304.0,272818.0
1.8117664723105027,84319.0,272813.0
1.8142689121893847,84334.0,272803.0
1.8167713520682665,84332.0,272804.0
1.8192737919471484,84333.0,272789.0
1.8217762318260302,84340.0,272818.0
1.8242786717049122,84345.0,272830.0
1.8267811115837942,84343.0,272824.0
1.829283551462676,84380.0,272822.0
1.831785991341558,84355.0,272801.0
1.83428843122044,84395.0,272816.0
1.8367908710993217,84414.0,272816.0
1.8392933109782037,84422.0,272782.0
1.8417957508570857,84425.0,272763.0
1.8442981907359675,84403.0,272829.0
1.8468006306148494,84456.0,272794.0
1.8493030704937312,84439.0,272834.0
1.8518055103726132,84468.0,272823.0
1.8543079502514952,84454.0,272825.0
1.856810390130377,84499.0,272820.0
1.859312830009259,84516.0,272797.0
1.861815269888141,84506.0,272823.0
1.8643177097670227,84519.0,272820.0
1.8668201496459047,84528.0,272809.0
1.8693225895247867,84537.0,272833.0
1.8718250294036685,84549.0,272839.0
1.8743274692825505,84566.0,272838.0
1.8768299091614324,84562.0,272844.0
1.8793323490403142,84565.0,272843.0
1.8818347889191962,84568.0,272830.0
1.884337228798078,84579.0,272853.0
1.88683966867696,84569.0,272816.0
1.889342108555842,84615.0,272830.0
1.8918445484347237,84624.0,272818.0
1.8943469883136057,84638.0,272838.0
1.8968494281924877,84654.0,272834.0
1.8993518680713695,84655.0,272845.0
1.9018543079502515,84638.0,272846.0
1.9043567478291334,84678.0,272846.0
1.9068591877080152,84655.0,272844.0
1.9093616275868972,84691.0,272833.0
1.911864067465779,84687.0,272835.0
1.914366507344661,84714.0,272812.0
1.916868947223543,84720.0,272889.0
1.9193713871024247,84735.0,272871.0
1.9218738269813067,84740.0,272841.0
1.9243762668601887,84751.0,272829.0
1.9268787067390705,84762.0,272841.0
1.9293811466179525,84773.0,272854.0
1.9318835864968344,84799.0,272846.0
1.9343860263757162,84787.0,272839.0
1.9368884662545982,84802.0,272857.0
1.93939090613348,84801.0,272840.0
1.941893346012362,84854.0,272864.0
1.944395785891244,84850.0,272851.0
1.9468982257701257,84857.0,272860.0
1.9494006656490077,84837.0,272838.0
1.9519031055278897,84876.0,272854.0
1.9544055454067715,84888.0,272852.0
1.9569079852856535,84856.0,272856.0
1.9594104251645355,84904.0,272852.0
1.9619128650434172,84905.0,272847.0
1.9644153049222992,84899.0,272855.0
1.966917744801181,84933.0,272881.0
1.969420184680063,84932.0,272881.0
1.971922624558945,84940.0,272861.0
1.9744250644378267,84948.0,272840.0
1.9769275043167087,84949.0,272866.0
1.9794299441955907,84946.0,272869.0
1.9819323840744725,84981.0,272899.0
1.9844348239533545,84996.0,272877.0
1.9869372638322365,85002.0,272916.0
1.9894397037111182,84997.0,272874.0
1.9919421435900002,84994.0,272860.0
1.994444583468882,85042.0,272898.0
1.996947023347764,85041.0,272874.0
1.999449463226646,85025.0,272848.0
2.0019519031055277,85037.0,272878.0
2.0044543429844097,85029.0,272867.0
2.0069567828632917,85037.0,272866.0
2.0094592227421737,85035.0,272858.0
2.0119616626210552,85032.0,272873.0
2.0144641024999372,85046.0,272878.0
2.0169665423788192,85044.0,272857.0
2.019468982257701,85038.0,272848.0
2.021971422136583,85022.0,272873.0
2.024473862015465,85007.0,272835.0
2.0269763018943467,85035.0,272849.0
2.0294787417732287,84993.0,272852.0
2.0319811816521107,84987.0,272855.0
2.0344836215309927,84979.0,272872.0
2.0369860614098747,84972.0,272871.0
2.0394885012887563,84949.0,272843.0
2.0419909411676382,84921.0,272874.0
2.0444933810465202,84892.0,272828.0
2.046995820925402,84856.0,272856.0
2.049498260804284,84837.0,272845.0
2.052000700683166,84817.0,272843.0
2.0545031405620477,84785.0,272846.0
2.0570055804409297,84763.0,272862.0
2.0595080203198117,84720.0,272843.0
2.0620104601986937,84712.0,272869.0
2.0645129000775757,84669.0,272860.0
2.0670153399564573,84632.0,272868.0
2.0695177798353392,84569.0,272865.0
2.0720202197142212,84559.0,272854.0
2.0745226595931032,84530.0,272830.0
2.077025099471985,84483.0,272844.0
2.079527539350867,84430.0,272867.0
2.0820299792297488,84363.0,272872.0
2.0845324191086307,84353.0,272850.0
2.0870348589875127,84310.0,272854.0
2.0895372988663947,84255.0,272836.0
2.0920397387452767,84218.0,272847.0
2.0945421786241587,84196.0,272840.0
2.0970446185030402,84148.0,272852.0
2.0995470583819222,84116.0,272824.0
2.1020494982608042,84075.0,272804.0
2.104551938139686,84034.0,272822.0
2.107054378018568,83976.0,272825.0
2.1095568178974498,83984.0,272834.0
2.1120592577763317,83947.0,272824.0
2.1145616976552137,83875.0,272833.0
2.1170641375340957,83868.0,272819.0
2.1195665774129777,83820.0,272824.0
2.1220690172918597,83803.0,272808.0
2.1245714571707413,83779.0,272814.0
2.1270738970496232,83728.0,272826.0
2.1295763369285052,83707.0,272794.0
2.132078776807387,83671.0,272793.0
2.134581216686269,83633.0,272824.0
2.1370836565651508,83614.0,272820.0
2.1395860964440327,83592.0,272807.0
2.1420885363229147,83570.0,272804.0
2.1445909762017967,83545.0,272815.0
2.1470934160806787,83537.0,272824.0
2.1495958559595607,83509.0,272801.0
2.1520982958384423,83510.0,272813.0
2.1546007357173242,83457.0,272789.0
2.1571031755962062,83451.0,272799.0
2.1596056154750882,83414.0,272797.0
2.16210805535397,83415.0,272792.0
2.1646104952328518,83396.0,272812.0
2.1671129351117338,83371.0,272799.0
2.1696153749906157,83367.0,272806.0
2.1721178148694977,83320.0,272798.0
2.1746202547483797,83309.0,272804.0
2.1771226946272617,83306.0,272814.0
2.1796251345061433,83279.0,272790.0
2.1821275743850252,83256.0,272797.0
2.1846300142639072,83240.0,272787.0
2.1871324541427892,83235.0,272806.0
2.189634894021671,83219.0,272809.0
2.1921373339005528,83216.0,272818.0
2.1946397737794348,83186.0,272800.0
2.1971422136583167,83182.0,272800.0
2.1996446535371987,83146.0,272796.0
2.2021470934160807,83134.0,272782.0
2.2046495332949627,83107.0,272798.0
2.2071519731738443,83114.0,272756.0
2.2096544130527263,83100.0,272759.0
2.2121568529316082,83087.0,272805.0
2.2146592928104902,83073.0,272763.0
2.2171617326893722,83068.0,272773.0
2.2196641725682538,83054.0,272777.0
2.2221666124471358,83063.0,272773.0
2.2246690523260177,83027.0,272777.0
2.2271714922048997,83032.0,272786.0
2.2296739320837817,83055.0,272767.0
2.2321763719626637,83048.0,272768.0
2.2346788118415453,83031.0,272796.0
2.2371812517204273,83027.0,272743.0
2.2396836915993092,83025.0,272779.0
2.2421861314781912,83032.0,272768.0
2.2446885713570732,83037.0,272756.0
2.2471910112359548,83041.0,272798.0
2.2496934511148368,83029.0,272774.0
2.2521958909937188,83054.0,272808.0
2.2546983308726007,83059.0,272766.0
2.2572007707514827,83052.0,272792.0
2.2597032106303647,83057.0,272783.0
2.2622056505092463,83069.0,272784.0
2.2647080903881283,83057.0,272793.0
2.2672105302670102,83070.0,272776.0
2.2697129701458922,83081.0,272774.0
2.2722154100247742,83087.0,272755.0
2.2747178499036558,83086.0,272778.0
2.2772202897825378,83083.0,272770.0
2.2797227296614198,83102.0,272775.0
2.2822251695403017,83111.0,272796.0
2.2847276094191837,83106.0,272800.0
2.2872300492980657,83134.0,272779.0
2.2897324891769473,83143.0,272758.0
2.2922349290558293,83126.0,272760.0
2.2947373689347113,83139.0,272784.0
2.2972398088135932,83160.0,272781.0
2.2997422486924752,83127.0,272787.0
2.302244688571357,83156.0,272776.0
2.3047471284502388,83160.0,272798.0
2.3072495683291208,83163.0,272784.0
2.3097520082080027,83180.0,272773.0
2.3122544480868847,83159.0,272764.0
2.3147568879657667,83172.0,272786.0
2.3172593278446483,83195.0,272789.0
2.3197617677235303,83181.0,272770.0
2.3222642076024123,83183.0,272773.0
2.3247666474812942,83185.0,272777.0
2.3272690873601762,83173.0,272753.0
2.329771527239058,83192.0,272757.0
2.3322739671179398,83201.0,272781.0
2.3347764069968218,83171.0,272745.0
2.3372788468757038,83210.0,272782.0
2.3397812867545857,83216.0,272772.0
2.3422837266334677,83200.0,272778.0
2.3447861665123493,83211.0,272768.0
2.3472886063912313,83200.0,272779.0
2.3497910462701133,83211.0,272737.0
2.3522934861489952,83213.0,272720.0
2.3547959260278772,83192.0,272754.0
2.3572983659067592,83203.0,272739.0
2.3598008057856408,83225.0,272765.0
2.3623032456645228,83216.0,272744.0
2.3648056855434048,83210.0,272763.0
2.3673081254222867,83213.0,272760.0
2.3698105653011687,83225.0,272771.0
2.3723130051800503,83230.0,272750.0
2.3748154450589323,83234.0,272765.0
2.3773178849378143,83233.0,272730.0
2.3798203248166963,83232.0,272741.0
2.3823227646955782,83213.0,272759.0
2.3848252045744602,83233.0,272743.0
2.387327644453342,83231.0,272728.0
2.3898300843322238,83233.0,272743.0
2.3923325242111058,83254.0,272753.0
2.3948349640899877,83256.0,272735.0
2.3973374039688697,83282.0,272739.0
2.3998398438477513,83265.0,272749.0
2.4023422837266333,83255.0,272755.0
2.4048447236055153,83269.0,272757.0
2.4073471634843973,83265.0,272737.0
2.4098496033632792,83281.0,272768.0
2.4123520432421612,83281.0,272763.0
2.414854483121043,83286.0,272738.0
2.4173569229999248,83290.0,272769.0
2.4198593628788068,83303.0,272777.0
2.4223618027576888,83312.0,272788.0
2.4248642426365707,83307.0,272779.0
2.4273666825154523,83344.0,272769.0
2.4298691223943343,83320.0,272789.0
2.4323715622732163,83352.0,272790.0
2.4348740021520983,83350.0,272785.0
2.4373764420309803,83339.0,272774.0
2.4398788819098622,83382.0,272780.0
2.442381321788744,83392.0,272763.0
2.4448837616676258,83369.0,272750.0
2.4473862015465078,83387.0,272770.0
2.4498886414253898,83409.0,272786.0
2.4523910813042717,83407.0,272758.0
2.4548935211831533,83431.0,272778.0
2.4573959610620353,83436.0,272760.0
2.4598984009409173,83464.0,272770.0
2.4624008408197993,83448.0,272759.0
2.4649032806986813,83440.0,272783.0
2.4674057205775632,83451.0,272774.0
2.469908160456445,83476.0,272793.0
2.472410600335327,83467.0,272778.0
2.4749130402142088,83501.0,272777.0
2.4774154800930908,83509.0,272757.0
2.4799179199719728,83491.0,272782.0
2.4824203598508543,83528.0,272768.0
2.4849227997297363,83519.0,272767.0
2.4874252396086183,83526.0,272766.0
2.4899276794875003,83552.0,272768.0
2.4924301193663823,83557.0,272751.0
2.4949325592452642,83575.0,272753.0
2.497434999124146,83575.0,272803.0
2.499937439003028,83600.0,272758.0
2.5024398788819098,83600.0,272794.0
2.5049423187607918,83622.0,272805.0
2.5074447586396738,83631.0,272795.0
2.5099471985185553,83641.0,272767.0
2.5124496383974373,83649.0,272794.0
2.5149520782763193,83657.0,272783.0
2.5174545181552013,83658.0,272779.0
2.5199569580340833,83676.0,272764.0
2.5224593979129653,83679.0,272798.0
2.524961837791847,83694.0,272750.0
2.527464277670729,83701.0,272771.0
2.5299667175496108,83710.0,272787.0
2.5324691574284928,83729.0,272792.0
2.5349715973073748,83726.0,272761.0
2.5374740371862563,83733.0,272767.0
2.5399764770651383,83764.0,272806.0
2.5424789169440203,83765.0,272782.0
2.5449813568229023,83773.0,272794.0
2.5474837967017843,83796.0,272753.0
2.5499862365806663,83777.0,272771.0
2.552488676459548,83776.0,272790.0
2.55499111633843,83777.0,272759.0
2.557493556217312,83810.0,272771.0
2.5599959960961938,83807.0,272778.0
2.5624984359750758,83838.0,272768.0
2.5650008758539573,83858.0,272773.0
2.5675033157328393,83872.0,272770.0
2.5700057556117213,83863.0,272778.0
2.5725081954906033,83864.0,272777.0
2.5750106353694853,83883.0,272788.0
2.5775130752483673,83885.0,272771.0
2.580015515127249,83894.0,272791.0
2.582517955006131,83914.0,272792.0
2.585020394885013,83917.0,272785.0
2.5875228347638948,83906.0,272782.0
2.5900252746427768,83938.0,272770.0
2.5925277145216583,83972.0,272796.0
2.5950301544005403,83978.0,272786.0
2.5975325942794223,83978.0,272754.0
2.6000350341583043,83965.0,272795.0
2.6025374740371863,84005.0,272801.0
2.6050399139160683,83993.0,272802.0
2.60754235379495,84033.0,272770.0
2.610044793673832,84015.0,272761.0
2.612547233552714,84054.0,272772.0
2.615049673431596,84062.0,272765.0
2.6175521133104778,84040.0,272774.0
2.6200545531893593,84068.0,272769.0
2.6225569930682413,84083.0,272766.0
2.6250594329471233,84068.0,272793.0
2.6275618728260053,84092.0,272772.0
2.6300643127048873,84093.0,272783.0
2.6325667525837693,84127.0,272786.0
2.635069192462651,84125.0,272772.0
2.637571632341533,84130.0,272795.0
2.640074072220415,84135.0,272773.0
2.642576512099297,84167.0,272786.0
2.6450789519781788,84173.0,272780.0
2.6475813918570608,84165.0,272772.0
2.6500838317359423,84186.0,272765.0
2.6525862716148243,84196.0,272761.0
2.6550887114937063,84211.0,272763.0
2.6575911513725883,84196.0,272765.0
2.6600935912514703,84200.0,272758.0
2.662596031130352,84229.0,272783.0
2.665098471009234,84244.0,272794.0
2.667600910888116,84252.0,272794.0
2.670103350766998,84261.0,272793.0
2.6726057906458798,84269.0,272806.0
2.6751082305247618,84289.0,272784.0
2.6776106704036433,84311.0,272795.0
2.6801131102825253,84294.0,272767.0
2.6826155501614073,84316.0,272792.0
2.6851179900402893,84309.0,272781.0
2.6876204299191713,84314.0,272787.0
2.690122869798053,84348.0,272810.0
2.692625309676935,84356.0,272823.0
2.695127749555817,84346.0,272762.0
2.697630189434699,84369.0,272799.0
2.700132629313581,84374.0,272797.0
2.7026350691924628,84370.0,272789.0
2.7051375090713443,84367.0,272784.0
2.7076399489502263,84397.0,272782.0
2.7101423888291083,84414.0,272825.0
2.7126448287079903,84430.0,272804.0
2.7151472685868723,84446.0,272800.0
2.717649708465754,84460.0,272825.0
2.720152148344636,84472.0,272816.0
2.722654588223518,84464.0,272827.0
2.7251570281024,84485.0,272802.0
2.727659467981282,84492.0,272791.0
2.7301619078601638,84510.0,272801.0
2.7326643477390453,84487.0,272809.0
2.7351667876179273,84501.0,272822.0
2.7376692274968093,84515.0,272795.0
2.7401716673756913,84516.0,272776.0
2.7426741072545733,84547.0,272816.0
2.745176547133455,84536.0,272806.0
2.747678987012337,84559.0,272784.0
2.750181426891219,84566.0,272786.0
2.752683866770101,84582.0,272805.0
2.755186306648983,84594.0,272787.0
2.7576887465278648,84604.0,272804.0
2.7601911864067463,84643.0,272780.0
2.7626936262856283,84631.0,272777.0
2.7651960661645103,84598.0,272765.0
2.7676985060433923,84638.0,272786.0
2.7702009459222743,84636.0,272751.0
2.772703385801156,84659.0,272755.0
2.775205825680038,84669.0,272756.0
2.77770826555892,84651.0,272750.0
2.780210705437802,84689.0,272766.0
2.782713145316684,84698.0,272772.0
2.785215585195566,84682.0,272760.0
2.7877180250744473,84680.0,272764.0
2.7902204649533293,84675.0,272774.0
2.7927229048322113,84685.0,272737.0
2.7952253447110933,84702.0,272779.0
2.7977277845899753,84691.0,272751.0
2.800230224468857,84687.0,272760.0
2.802732664347739,84701.0,272775.0
2.805235104226621,84651.0,272742.0
2.807737544105503,84642.0,272726.0
2.810239983984385,84668.0,272766.0
2.812742423863267,84650.0,272773.0
2.8152448637421483,84616.0,272761.0
2.8177473036210303,84614.0,272772.0
2.8202497434999123,84595.0,272780.0
2.8227521833787943,84561.0,272788.0
2.8252546232576763,84542.0,272782.0
2.827757063136558,84505.0,272759.0
2.83025950301544,84498.0,272762.0
2.832761942894322,84484.0,272767.0
2.835264382773204,84409.0,272776.0
2.837766822652086,84416.0,272758.0
2.840269262530968,84376.0,272795.0
2.8427717024098493,84346.0,272763.0
2.8452741422887313,84288.0,272786.0
2.8477765821676133,84251.0,272757.0
2.8502790220464953,84205.0,272752.0
2.8527814619253773,84195.0,272752.0
2.855283901804259,84139.0,272765.0
2.857786341683141,84080.0,272750.0
2.860288781562023,84054.0,272739.0
2.862791221440905,84021.0,272742.0
2.865293661319787,83973.0,272738.0
2.867796101198669,83933.0,272750.0
2.8702985410775503,83904.0,272739.0
2.8728009809564323,83857.0,272737.0
2.8753034208353143,83830.0,272718.0
2.8778058607141963,83768.0,272734.0
2.8803083005930783,83739.0,272721.0
2.88281074047196,83698.0,272731.0
2.885313180350842,83658.0,272727.0
2.887815620229724,83613.0,272735.0
2.890318060108606,83585.0,272711.0
2.892820499987488,83550.0,272735.0
2.89532293986637,83537.0,272724.0
2.8978253797452513,83504.0,272718.0
2.9003278196241333,83456.0,272713.0
2.9028302595030153,83429.0,272724.0
2.9053326993818973,83411.0,272715.0
2.9078351392607793,83365.0,272697.0
2.9103375791396613,83316.0,272670.0
2.912840019018543,83304.0,272690.0
2.915342458897425,83285.0,272685.0
2.917844898776307,83286.0,272690.0
2.920347338655189,83233.0,272704.0
2.922849778534071,83220.0,272712.0
2.9253522184129523,83171.0,272707.0
2.9278546582918343,83172.0,272704.0
2.9303570981707163,83146.0,272718.0
2.9328595380495983,83115.0,272714.0
2.9353619779284803,83112.0,272703.0
2.9378644178073623,83070.0,272685.0
2.940366857686244,83066.0,272692.0
2.942869297565126,83045.0,272705.0
2.945371737444008,83012.0,272713.0
2.94787417732289,83007.0,272672.0
2.950376617201772,82977.0,272690.0
2.9528790570806533,82966.0,272714.0
2.9553814969595353,82940.0,272716.0
2.9578839368384173,82941.0,272676.0
2.9603863767172993,82928.0,272703.0
2.9628888165961813,82892.0,272702.0
2.9653912564750633,82868.0,272682.0
2.967893696353945,82861.0,272701.0
2.970396136232827,82846.0,272693.0
2.972898576111709,82838.0,272690.0
2.975401015990591,82829.0,272700.0
2.977903455869473,82810.0,272697.0
2.9804058957483544,82829.0,272698.0
2.9829083356272363,82794.0,272689.0
2.9854107755061183,82790.0,272702.0
2.9879132153850003,82781.0,272690.0
2.9904156552638823,82758.0,272698.0
2.9929180951427643,82754.0,272697.0
2.995420535021646,82758.0,272699.0
2.997922974900528,82731.0,272684.0
3.00042541477941,82723.0,272693.0
3.002927854658292,82727.0,272677.0
3.005430294537174,82713.0,272673.0
3.0079327344160554,82719.0,272702.0
3.0104351742949373,82714.0,272677.0
3.0129376141738193,82714.0,272700.0
3.0154400540527013,82706.0,272695.0
3.0179424939315833,82720.0,272684.0
3.0204449338104653,82708.0,272689.0
3.022947373689347,82729.0,272677.0
3.025449813568229,82712.0,272717.0
3.027952253447111,82698.0,272680.0
3.030454693325993,82737.0,272671.0
3.032957133204875,82727.0,272675.0
3.0354595730837564,82743.0,272683.0
3.0379620129626383,82762.0,272684.0
3.0404644528415203,82767.0,272692.0
3.0429668927204023,82751.0,272710.0
3.0454693325992843,82750.0,272685.0
3.0479717724781663,82761.0,272676.0
3.050474212357048,82769.0,272665.0
3.05297665223593,82769.0,272690.0
3.055479092114812,82792.0,272676.0
3.057981531993694,82797.0,272688.0
3.060483971872576,82805.0,272674.0
3.0629864117514574,82833.0,272691.0
3.0654888516303394,82837.0,272691.0
3.0679912915092213,82816.0,272686.0
3.0704937313881033,82824.0,272699.0
3.0729961712669853,82831.0,272688.0
3.0754986111458673,82848.0,272685.0
3.078001051024749,82836.0,272695.0
3.080503490903631,82862.0,272677.0
3.083005930782513,82851.0,272680.0
3.085508370661395,82870.0,272680.0
3.088010810540277,82849.0,272686.0
3.0905132504191584,82875.0,272686.0
3.0930156902980404,82883.0,272696.0
3.0955181301769223,82869.0,272696.0
3.0980205700558043,82886.0,272663.0
3.1005230099346863,82898.0,272695.0
3.1030254498135683,82911.0,272696.0
3.10552788969245,82903.0,272688.0
3.108030329571332,82942.0,272714.0
3.110532769450214,82917.0,272707.0
3.113035209329096,82931.0,272696.0
3.115537649207978,82944.0,272694.0
3.1180400890868594,82930.0,272681.0
3.1205425289657414,82919.0,272691.0
3.1230449688446233,82938.0,272675.0
3.1255474087235053,82967.0,272705.0
3.1280498486023873,82923.0,272681.0
3.1305522884812693,82950.0,272682.0
3.133054728360151,82962.0,272686.0
3.135557168239033,82974.0,272680.0
3.138059608117915,82986.0,272663.0
3.140562047996797,82980.0,272688.0
3.143064487875679,82994.0,272707.0
3.1455669277545604,82989.0,272670.0
3.1480693676334424,82998.0,272674.0
3.1505718075123244,83009.0,272664.0
3.1530742473912063,83018.0,272659.0
3.1555766872700883,83024.0,272688.0
3.1580791271489703,83017.0,272694.0
3.160581567027852,83031.0,272686.0
3.163084006906734,83048.0,272671.0
3.165586446785616,83030.0,272666.0
3.168088886664498,83045.0,272666.0
3.17059132654338,83030.0,272685.0
3.173093766422262,83068.0,272659.0
3.1755962063011434,83061.0,272655.0
3.1780986461800254,83075.0,272666.0
3.1806010860589073,83086.0,272657.0
3.1831035259377893,83109.0,272666.0
3.1856059658166713,83084.0,272675.0
3.188108405695553,83096.0,272684.0
3.190610845574435,83126.0,272683.0
3.193113285453317,83117.0,272682.0
3.195615725332199,83132.0,272682.0
3.198118165211081,83139.0,272690.0
3.200620605089963,83150.0,272670.0
3.2031230449688444,83158.0,272669.0
3.2056254848477264,83155.0,272689.0
3.2081279247266083,83166.0,272689.0
3.2106303646054903,83154.0,272680.0
3.2131328044843723,83168.0,272696.0
3.215635244363254,83210.0,272651.0
3.218137684242136,83192.0,272683.0
3.220640124121018,83216.0,272711.0
3.2231425639999,83231.0,272700.0
3.225645003878782,83224.0,272699.0
3.228147443757664,83229.0,272707.0
3.2306498836365454,83245.0,272702.0
3.2331523235154274,83257.0,272693.0
3.2356547633943094,83274.0,272669.0
3.2381572032731913,83286.0,272695.0
3.2406596431520733,83291.0,272700.0
3.243162083030955,83299.0,272714.0
3.245664522909837,83317.0,272712.0
3.248166962788719,83311.0,272675.0
3.250669402667601,83327.0,272701.0
3.253171842546483,83328.0,272682.0
3.255674282425365,83369.0,272698.0
3.2581767223042464,83356.0,272710.0
3.2606791621831284,83375.0,272697.0
3.2631816020620104,83395.0,272699.0
3.2656840419408923,83374.0,272663.0
3.2681864818197743,83393.0,272681.0
3.270688921698656,83427.0,272674.0
3.273191361577538,83440.0,272694.0
3.27569380145642,83436.0,272704.0
3.278196241335302,83474.0,272679.0
3.280698681214184,83470.0,272670.0
3.283201121093066,83489.0,272664.0
3.2857035609719474,83503.0,272659.0
3.2882060008508294,83503.0,272649.0
3.2907084407297114,83506.0,272683.0
3.2932108806085933,83527.0,272673.0
3.2957133204874753,83541.0,272690.0
3.298215760366357,83587.0,272676.0
3.300718200245239,83569.0,272651.0
3.303220640124121,83592.0,272685.0
3.305723080003003,83586.0,272672.0
3.308225519881885,83614.0,272666.0
3.310727959760767,83614.0,272688.0
3.3132303996396484,83629.0,272654.0
3.3157328395185304,83658.0,272692.0
3.3182352793974124,83651.0,272661.0
3.3207377192762944,83664.0,272671.0
3.3232401591551763,83690.0,272694.0
3.325742599034058,83698.0,272664.0
3.32824503891294,83706.0,272659.0
3.330747478791822,83715.0,272670.0
3.333249918670704,83722.0,272670.0
3.335752358549586,83763.0,272664.0
3.338254798428468,83754.0,272647.0
3.3407572383073494,83759.0,272677.0
3.3432596781862314,83770.0,272657.0
3.3457621180651134,83775.0,272672.0
3.3482645579439954,83810.0,272644.0
3.3507669978228773,83820.0,272655.0
3.353269437701759,83837.0,272651.0
3.355771877580641,83853.0,272645.0
3.358274317459523,83844.0,272659.0
3.360776757338405,83868.0,272647.0
3.363279197217287,83871.0,272645.0
3.365781637096169,83892.0,272617.0
3.3682840769750504,83901.0,272639.0
3.3707865168539324,83901.0,272645.0
3.3732889567328144,83925.0,272627.0
3.3757913966116964,83930.0,272625.0
3.3782938364905784,83959.0,272638.0
3.38079627636946,83956.0,272638.0
3.383298716248342,83957.0,272660.0
3.385801156127224,83989.0,272618.0
3.388303596006106,84014.0,272629.0
3.390806035884988,83994.0,272621.0
3.39330847576387,84033.0,272631.0
3.3958109156427514,84026.0,272607.0
3.3983133555216334,84024.0,272619.0
3.4008157954005154,84057.0,272643.0
3.4033182352793974,84081.0,272628.0
3.4058206751582794,84075.0,272644.0
3.408323115037161,84106.0,272649.0
3.410825554916043,84103.0,272648.0
3.413327994794925,84088.0,272640.0
3.415830434673807,84099.0,272616.0
3.418332874552689,84114.0,272642.0
3.420835314431571,84157.0,272632.0
3.4233377543104524,84147.0,272651.0
3.4258401941893344,84180.0,272658.0
3.4283426340682164,84164.0,272632.0
3.4308450739470984,84181.0,272643.0
3.4333475138259804,84175.0,272619.0
3.435849953704862,84209.0,272629.0
3.438352393583744,84209.0,272649.0
3.440854833462626,84211.0,272638.0
3.443357273341508,84213.0,272647.0
3.44585971322039,84254.0,272653.0
3.448362153099272,84269.0,272635.0
3.4508645929781534,84269.0,272624.0
3.4533670328570354,84269.0,272646.0
3.4558694727359174,84278.0,272631.0
3.4583719126147994,84333.0,272633.0
3.4608743524936814,84303.0,272645.0
3.4633767923725634,84331.0,272626.0
3.465879232251445,84379.0,272637.0
3.468381672130327,84369.0,272622.0
3.470884112009209,84370.0,272648.0
3.473386551888091,84371.0,272661.0
3.475888991766973,84384.0,272643.0
3.4783914316458544,84421.0,272641.0
3.4808938715247364,84428.0,272643.0
3.4833963114036184,84426.0,272650.0
3.4858987512825004,84438.0,272646.0
3.4884011911613824,84460.0,272646.0
3.4909036310402644,84445.0,272644.0
3.493406070919146,84487.0,272636.0
3.495908510798028,84496.0,272627.0
3.49841095067691,84494.0,272644.0
3.500913390555792,84528.0,272633.0
3.503415830434674,84550.0,272664.0
3.5059182703135554,84575.0,272638.0
3.5084207101924374,84531.0,272636.0
3.5109231500713194,84541.0,272670.0
3.5134255899502014,84581.0,272669.0
3.5159280298290834,84614.0,272661.0
3.5184304697079654,84613.0,272622.0
3.520932909586847,84636.0,272652.0
3.523435349465729,84624.0,272652.0
3.525937789344611,84650.0,272659.0
3.528440229223493,84656.0,272669.0
3.530942669102375,84655.0,272674.0
3.5334451089812564,84670.0,272657.0
3.5359475488601384,84699.0,272670.0
3.5384499887390204,84677.0,272677.0
3.5409524286179024,84715.0,272680.0
3.5434548684967844,84741.0,272681.0
3.5459573083756664,84730.0,272664.0
3.548459748254548,84739.0,272660.0
3.55096218813343,84735.0,272665.0
3.553464628012312,84725.0,272663.0
3.555967067891194,84755.0,272644.0
3.558469507770076,84744.0,272631.0
3.5609719476489574,84754.0,272655.0
3.5634743875278394,84727.0,272652.0
3.5659768274067214,84750.0,272649.0
3.5684792672856034,84727.0,272634.0
3.5709817071644854,84727.0,272675.0
3.5734841470433674,84717.0,272644.0
3.575986586922249,84718.0,272629.0
3.578489026801131,84681.0,272638.0
3.580991466680013,84678.0,272645.0
3.583493906558895,84695.0,272657.0
3.585996346437777,84662.0,272630.0
3.5884987863166584,84632.0,272612.0
3.5910012261955404,84637.0,272659.0
3.5935036660744224,84604.0,272620.0
3.5960061059533044,84596.0,272596.0
3.5985085458321864,84561.0,272639.0
3.6010109857110684,84561.0,272623.0
3.60351342558995,84523.0,272631.0
3.606015865468832,84501.0,272641.0
3.608518305347714,84465.0,272628.0
3.611020745226596,84433.0,272617.0
3.613523185105478,84388.0,272620.0
3.6160256249843594,84371.0,272603.0
3.6185280648632414,84354.0,272599.0
3.6210305047421234,84310.0,272605.0
3.6235329446210054,84284.0,272619.0
3.6260353844998874,84254.0,272584.0
3.6285378243787694,84218.0,272606.0
3.631040264257651,84160.0,272603.0
3.633542704136533,84160.0,272593.0
3.636045144015415,84114.0,272608.0
3.638547583894297,84093.0,272600.0
3.641050023773179,84075.0,272594.0
3.6435524636520604,84003.0,272591.0
3.6460549035309424,83988.0,272605.0
3.6485573434098244,83952.0,272593.0
3.6510597832887064,83934.0,272583.0
3.6535622231675884,83923.0,272587.0
3.6560646630464704,83873.0,272610.0
3.658567102925352,83834.0,272611.0
3.661069542804234,83794.0,272605.0
3.663571982683116,83816.0,272619.0
3.666074422561998,83787.0,272595.0
3.66857686244088,83771.0,272596.0
3.6710793023197614,83730.0,272576.0
3.6735817421986434,83712.0,272591.0
3.6760841820775254,83674.0,272596.0
3.6785866219564074,83671.0,272589.0
3.6810890618352894,83661.0,272588.0
3.6835915017141714,83637.0,272576.0
3.686093941593053,83610.0,272586.0
3.688596381471935,83591.0,272545.0
3.691098821350817,83571.0,272571.0
3.693601261229699,83582.0,272600.0
3.696103701108581,83566.0,272563.0
3.6986061409874624,83519.0,272571.0
3.7011085808663444,83517.0,272581.0
3.7036110207452264,83496.0,272562.0
3.7061134606241084,83496.0,272556.0
3.7086159005029904,83508.0,272568.0
3.7111183403818724,83489.0,272569.0
3.713620780260754,83451.0,272565.0
3.716123220139636,83433.0,272574.0
3.718625660018518,83410.0,272573.0
3.7211280998974,83406.0,272573.0
3.723630539776282,83408.0,272567.0
3.726132979655164,83417.0,272582.0
3.7286354195340454,83414.0,272550.0
3.7311378594129274,83393.0,272539.0
3.7336402992918094,83397.0,272563.0
3.7361427391706914,83382.0,272549.0
3.7386451790495734,83386.0,272562.0
3.741147618928455,83381.0,272533.0
3.743650058807337,83354.0,272556.0
3.746152498686219,83355.0,272535.0
3.748654938565101,83356.0,272548.0
3.751157378443983,83342.0,272527.0
3.753659818322865,83367.0,272530.0
3.7561622582017464,83337.0,272582.0
3.7586646980806284,83358.0,272562.0
3.7611671379595104,83351.0,272523.0
3.7636695778383924,83332.0,272539.0
3.7661720177172744,83358.0,272525.0
3.768674457596156,83355.0,272496.0
3.771176897475038,83334.0,272520.0
3.77367933735392,83340.0,272496.0
3.776181777232802,83354.0,272537.0
3.778684217111684,83352.0,272528.0
3.781186656990566,83342.0,272528.0
3.7836890968694474,83369.0,272527.0
3.7861915367483294,83347.0,272547.0
3.7886939766272114,83356.0,272524.0
3.7911964165060934,83345.0,272510.0
3.7936988563849754,83387.0,272538.0
3.796201296263857,83375.0,272552.0
3.798703736142739,83404.0,272526.0
3.801206176021621,83406.0,272551.0
3.803708615900503,83398.0,272542.0
3.806211055779385,83402.0,272556.0
3.808713495658267,83412.0,272539.0
3.8112159355371484,83411.0,272560.0
3.8137183754160304,83403.0,272553.0
3.8162208152949124,83431.0,272552.0
3.8187232551737944,83433.0,272541.0
3.8212256950526764,83439.0,272586.0
3.823728134931558,83429.0,272554.0
3.82623057481044,83456.0,272553.0
3.828733014689322,83442.0,272569.0
3.831235454568204,83452.0,272590.0
3.833737894447086,83482.0,272556.0
3.836240334325968,83438.0,272568.0
3.8387427742048494,83461.0,272552.0
3.8412452140837314,83464.0,272549.0
3.8437476539626134,83486.0,272553.0
3.8462500938414954,83479.0,272562.0
3.8487525337203774,83486.0,272570.0
3.851254973599259,83495.0,272558.0
3.853757413478141,83495.0,272545.0
3.856259853357023,83487.0,272599.0
3.858762293235905,83501.0,272570.0
3.861264733114787,83497.0,272561.0
3.863767172993669,83517.0,272561.0
3.8662696128725504,83497.0,272558.0
3.8687720527514324,83511.0,272556.0
3.8712744926303144,83521.0,272561.0
3.8737769325091964,83503.0,272552.0
3.8762793723880784,83503.0,272594.0
3.87878181226696,83496.0,272600.0
3.881284252145842,83529.0,272581.0
3.883786692024724,83502.0,272553.0
3.886289131903606,83512.0,272578.0
3.888791571782488,83526.0,272574.0
3.89129401166137,83523.0,272578.0
3.8937964515402514,83525.0,272587.0
3.8962988914191334,83512.0,272565.0
3.8988013312980154,83515.0,272567.0
3.9013037711768974,83526.0,272589.0
3.9038062110557794,83525.0,272585.0
3.906308650934661,83515.0,272572.0
3.908811090813543,83536.0,272594.0
3.911313530692425,83516.0,272578.0
3.913815970571307,83531.0,272575.0
3.916318410450189,83537.0,272585.0
3.918820850329071,83549.0,272582.0
3.9213232902079525,83531.0,272582.0
3.9238257300868344,83548.0,272565.0
3.9263281699657164,83540.0,272561.0
3.9288306098445984,83570.0,272583.0
3.9313330497234804,83576.0,272579.0
3.933835489602362,83564.0,272573.0
3.936337929481244,83571.0,272564.0
3.938840369360126,83580.0,272582.0
3.941342809239008,83598.0,272587.0
3.94384524911789,83568.0,272579.0
3.946347688996772,83587.0,272563.0
3.9488501288756535,83594.0,272600.0
3.9513525687545354,83624.0,272595.0
3.9538550086334174,83602.0,272608.0
3.9563574485122994,83614.0,272598.0
3.9588598883911814,83630.0,272568.0
3.961362328270063,83635.0,272600.0
3.963864768148945,83650.0,272586.0
3.966367208027827,83624.0,272593.0
3.968869647906709,83641.0,272607.0
3.971372087785591,83639.0,272596.0
3.973874527664473,83656.0,272576.0
3.9763769675433545,83657.0,272552.0
3.9788794074222364,83661.0,272585.0
3.9813818473011184,83692.0,272573.0
3.9838842871800004,83673.0,272582.0
3.9863867270588824,83694.0,272566.0
3.988889166937764,83690.0,272585.0
3.991391606816646,83725.0,272589.0
3.993894046695528,83706.0,272581.0
3.99639648657441,83719.0,272575.0
3.998898926453292,83730.0,272597.0
4.001401366332174,83733.0,272576.0
4.0039038062110555,83770.0,272593.0
4.006406246089938,83739.0,272591.0
4.008908685968819,83760.0,272595.0
4.011411125847701,83762.0,272569.0
4.013913565726583,83757.0,272603.0
4.016416005605465,83770.0,272601.0
4.018918445484347,83787.0,272589.0
4.021420885363229,83803.0,272609.0
4.0239233252421105,83803.0,272616.0
4.026425765120993,83813.0,272593.0
4.0289282049998745,83809.0,272626.0
4.031430644878757,83813.0,272631.0
4.0339330847576385,83842.0,272627.0
4.036435524636521,83844.0,272656.0
4.038937964515402,83857.0,272627.0
4.041440404394284,83872.0,272633.0
4.043942844273166,83843.0,272639.0
4.046445284152048,83882.0,272674.0
4.04894772403093,83862.0,272655.0
4.051450163909812,83903.0,272615.0
4.0539526037886935,83891.0,272632.0
4.056455043667576,83900.0,272663.0
4.0589574835464575,83931.0,272661.0
4.06145992342534,83939.0,272636.0
4.0639623633042214,83939.0,272653.0
4.066464803183103,83961.0,272647.0
4.068967243061985,83964.0,272637.0
4.071469682940867,83947.0,272668.0
4.073972122819749,83998.0,272660.0
4.076474562698631,83993.0,272654.0
4.0789770025775125,84006.0,272642.0
4.081479442456395,83991.0,272663.0
4.0839818823352765,84021.0,272647.0
4.086484322214159,84029.0,272675.0
4.0889867620930405,84025.0,272641.0
4.091489201971923,84005.0,272661.0
4.093991641850804,84041.0,272669.0
4.096494081729686,84042.0,272652.0
4.098996521608568,84064.0,272662.0
4.10149896148745,84072.0,272651.0
4.104001401366332,84087.0,272661.0
4.106503841245214,84071.0,272655.0
4.1090062811240955,84087.0,272676.0
4.111508721002978,84096.0,272653.0
4.1140111608818595,84097.0,272675.0
4.116513600760742,84093.0,272656.0
4.1190160406396235,84147.0,272645.0
4.121518480518505,84125.0,272663.0
4.124020920397387,84138.0,272661.0
4.126523360276269,84152.0,272665.0
4.129025800155151,84160.0,272680.0
4.131528240034033,84153.0,272652.0
4.1340306799129145,84173.0,272679.0
4.136533119791797,84184.0,272669.0
4.1390355596706785,84210.0,272640.0
4.141537999549561,84196.0,272667.0
4.1440404394284425,84190.0,272684.0
4.146542879307325,84230.0,272651.0
4.1490453191862064,84231.0,272663.0
4.151547759065088,84247.0,272679.0
4.15405019894397,84233.0,272672.0
4.156552638822852,84256.0,272668.0
4.159055078701734,84254.0,272663.0
4.161557518580616,84274.0,272654.0
4.1640599584594975,84283.0,272664.0
4.16656239833838,84313.0,272648.0
4.1690648382172615,84289.0,272676.0
4.171567278096144,84304.0,272673.0
4.1740697179750255,84305.0,272665.0
4.176572157853907,84334.0,272679.0
4.179074597732789,84344.0,272674.0
4.181577037611671,84350.0,272676.0
4.184079477490553,84378.0,272679.0
4.186581917369435,84355.0,272692.0
4.189084357248317,84389.0,272701.0
4.191586797127199,84372.0,272698.0
4.1940892370060805,84388.0,272676.0
4.196591676884963,84409.0,272662.0
4.1990941167638445,84398.0,272667.0
4.201596556642727,84420.0,272688.0
4.2040989965216085,84419.0,272678.0
4.20660143640049,84460.0,272682.0
4.209103876279372,84446.0,272680.0
4.211606316158254,84460.0,272694.0
4.214108756037136,84456.0,272688.0
4.216611195916018,84475.0,272691.0
4.2191136357948995,84501.0,272682.0
4.221616075673782,84504.0,272672.0
4.2241185155526635,84492.0,272678.0
4.226620955431546,84508.0,272673.0
4.2291233953104275,84518.0,272682.0
4.231625835189309,84535.0,272660.0
4.2341282750681914,84546.0,272694.0
4.236630714947073,84552.0,272692.0
4.239133154825955,84568.0,272664.0
4.241635594704837,84607.0,272698.0
4.244138034583719,84601.0,272681.0
4.246640474462601,84596.0,272680.0
4.2491429143414825,84594.0,272684.0
4.251645354220365,84595.0,272667.0
4.2541477940992465,84596.0,272669.0
4.256650233978129,84609.0,272684.0
4.2591526738570105,84636.0,272699.0
4.261655113735892,84640.0,272697.0
4.264157553614774,84687.0,272679.0
4.266659993493656,84678.0,272698.0
4.269162433372538,84677.0,272654.0
4.27166487325142,84692.0,272682.0
4.2741673131303015,84693.0,272679.0
4.276669753009184,84734.0,272678.0
4.2791721928880655,84722.0,272689.0
4.281674632766948,84712.0,272680.0
4.2841770726458295,84745.0,272686.0
4.286679512524711,84761.0,272693.0
4.2891819524035935,84774.0,272689.0
4.291684392282475,84786.0,272677.0
4.294186832161357,84761.0,272679.0
4.296689272040239,84785.0,272658.0
4.299191711919121,84759.0,272658.0
4.301694151798003,84764.0,272672.0
4.3041965916768845,84762.0,272671.0
4.306699031555767,84745.0,272691.0
4.3092014714346485,84754.0,272673.0
4.311703911313531,84766.0,272629.0
4.3142063511924125,84754.0,272648.0
4.316708791071294,84746.0,272656.0
4.3192112309501764,84748.0,272666.0
4.321713670829058,84719.0,272652.0
4.32421611070794,84743.0,272669.0
4.326718550586822,84686.0,272663.0
4.3292209904657035,84685.0,272663.0
4.331723430344586,84669.0,272690.0
4.3342258702234675,84646.0,272673.0
4.33672831010235,84616.0,272651.0
4.3392307499812315,84612.0,272667.0
4.341733189860113,84565.0,272674.0
4.3442356297389955,84552.0,272660.0
4.346738069617877,84520.0,272655.0
4.349240509496759,84501.0,272682.0
4.351742949375641,84448.0,272660.0
4.354245389254523,84426.0,272654.0
4.356747829133405,84364.0,272637.0
4.3592502690122865,84339.0,272652.0
4.361752708891169,84330.0,272642.0
4.3642551487700505,84283.0,272649.0
4.366757588648933,84231.0,272638.0
4.3692600285278145,84189.0,272641.0
4.371762468406696,84178.0,272636.0
4.3742649082855785,84117.0,272644.0
4.37676734816446,84071.0,272631.0
4.379269788043342,84061.0,272638.0
4.381772227922224,84003.0,272625.0
4.3842746678011055,83966.0,272636.0
4.386777107679988,83971.0,272644.0
4.3892795475588695,83917.0,272652.0
4.391781987437752,83867.0,272640.0
4.3942844273166335,83859.0,272633.0
4.396786867195515,83816.0,272628.0
4.3992893070743975,83817.0,272629.0
4.401791746953279,83745.0,272635.0
4.4042941868321615,83759.0,272604.0
4.406796626711043,83699.0,272626.0
4.409299066589925,83662.0,272628.0
4.411801506468807,83652.0,272639.0
4.4143039463476885,83611.0,272627.0
4.416806386226571,83582.0,272608.0
4.4193088261054525,83545.0,272605.0
4.421811265984335,83544.0,272612.0
4.4243137058632165,83510.0,272602.0
4.426816145742098,83474.0,272602.0
4.4293185856209805,83482.0,272616.0
4.431821025499862,83419.0,272594.0
4.4343234653787444,83410.0,272615.0
4.436825905257626,83379.0,272602.0
4.4393283451365075,83371.0,272604.0
4.44183078501539,83355.0,272618.0
4.4443332248942715,83345.0,272588.0
4.446835664773154,83324.0,272590.0
4.4493381046520355,83313.0,272597.0
4.451840544530918,83302.0,272598.0
4.4543429844097995,83308.0,272600.0
4.456845424288681,83250.0,272600.0
4.4593478641675635,83252.0,272599.0
4.461850304046445,83243.0,272601.0
4.464352743925327,83243.0,272619.0
4.466855183804209,83227.0,272606.0
4.4693576236830905,83203.0,272599.0
4.471860063561973,83186.0,272604.0
4.4743625034408545,83212.0,272590.0
4.476864943319737,83178.0,272598.0
4.4793673831986185,83151.0,272581.0
4.4818698230775,83154.0,272588.0
4.4843722629563825,83153.0,272602.0
4.486874702835264,83117.0,272568.0
4.4893771427141465,83123.0,272564.0
4.491879582593028,83123.0,272569.0
4.4943820224719095,83097.0,272607.0
4.496884462350792,83081.0,272589.0
4.4993869022296735,83081.0,272573.0
4.501889342108556,83073.0,272565.0
4.5043917819874375,83090.0,272562.0
4.50689422186632,83078.0,272561.0
4.5093966617452015,83050.0,272574.0
4.511899101624083,83079.0,272588.0
4.5144015415029655,83066.0,272585.0
4.516903981381847,83049.0,272602.0
4.5194064212607294,83049.0,272575.0
4.521908861139611,83078.0,272583.0
4.5244113010184925,83085.0,272580.0
4.526913740897375,83106.0,272601.0
4.5294161807762565,83077.0,272577.0
4.531918620655139,83079.0,272603.0
4.5344210605340205,83094.0,272570.0
4.536923500412902,83102.0,272584.0
4.5394259402917845,83101.0,272583.0
4.541928380170666,83094.0,272599.0
4.5444308200495485,83099.0,272580.0
4.54693325992843,83128.0,272589.0
4.5494356998073116,83156.0,272601.0
4.551938139686194,83139.0,272599.0
4.5544405795650755,83158.0,272602.0
4.556943019443958,83146.0,272617.0
4.5594454593228395,83165.0,272595.0
4.561947899201722,83176.0,272586.0
4.5644503390806035,83166.0,272612.0
4.566952778959485,83181.0,272573.0
4.5694552188383675,83196.0,272591.0
4.571957658717249,83170.0,272590.0
4.5744600985961315,83205.0,272579.0
4.576962538475013,83203.0,272601.0
4.5794649783538945,83208.0,272603.0
4.581967418232777,83215.0,272580.0
4.5844698581116585,83207.0,272596.0
4.586972297990541,83240.0,272630.0
4.5894747378694225,83229.0,272583.0
4.591977177748304,83213.0,272603.0
4.5944796176271865,83251.0,272591.0
4.596982057506068,83236.0,272613.0
4.5994844973849505,83233.0,272598.0
4.601986937263832,83267.0,272579.0
4.604489377142714,83232.0,272590.0
4.606991817021596,83243.0,272599.0
4.6094942569004775,83267.0,272604.0
4.61199669677936,83260.0,272612.0
4.6144991366582415,83265.0,272594.0
4.617001576537124,83278.0,272592.0
4.6195040164160055,83260.0,272625.0
4.622006456294887,83256.0,272591.0
4.6245088961737695,83263.0,272603.0
4.627011336052651,83278.0,272617.0
4.6295137759315335,83300.0,272575.0
4.632016215810415,83288.0,272626.0
4.6345186556892966,83286.0,272595.0
4.637021095568179,83293.0,272600.0
4.6395235354470605,83305.0,272610.0
4.642025975325943,83321.0,272592.0
4.6445284152048245,83300.0,272598.0
4.647030855083706,83323.0,272610.0
4.6495332949625885,83351.0,272606.0
4.65203573484147,83332.0,272604.0
4.6545381747203525,83326.0,272613.0
4.657040614599234,83318.0,272592.0
4.659543054478116,83330.0,272591.0
4.662045494356998,83336.0,272639.0
4.6645479342358795,83366.0,272609.0
4.667050374114762,83352.0,272599.0
4.6695528139936435,83364.0,272611.0
4.672055253872526,83383.0,272610.0
4.6745576937514075,83372.0,272586.0
4.677060133630289,83384.0,272600.0
4.6795625735091715,83390.0,272589.0
4.682065013388053,83392.0,272605.0
4.6845674532669355,83406.0,272613.0
4.687069893145817,83390.0,272613.0
4.689572333024699,83402.0,272602.0
4.692074772903581,83393.0,272608.0
4.6945772127824625,83419.0,272603.0
4.697079652661345,83405.0,272609.0
4.6995820925402265,83420.0,272582.0
4.702084532419108,83446.0,272594.0
4.7045869722979905,83452.0,272581.0
4.707089412176872,83449.0,272593.0
4.7095918520557545,83466.0,272619.0
4.712094291934636,83479.0,272600.0
4.7145967318135185,83464.0,272585.0
4.7170991716924,83468.0,272603.0
4.7196016115712816,83505.0,272611.0
4.722104051450164,83513.0,272625.0
4.7246064913290455,83528.0,272597.0
4.727108931207928,83512.0,272589.0
4.7296113710868095,83535.0,272599.0
4.732113810965691,83538.0,272618.0
4.7346162508445735,83543.0,272592.0
4.737118690723455,83557.0,272606.0
4.7396211306023375,83574.0,272594.0
4.742123570481219,83602.0,272601.0
4.744626010360101,83596.0,272605.0
4.747128450238983,83639.0,272604.0
4.7496308901178645,83641.0,272626.0
4.752133329996747,83627.0,272632.0
4.7546357698756285,83671.0,272608.0
4.75713820975451,83663.0,272625.0
4.7596406496333925,83674.0,272616.0
4.762143089512274,83700.0,272632.0
4.7646455293911565,83696.0,272616.0
4.767147969270038,83736.0,272622.0
4.7696504091489205,83723.0,272653.0
4.772152849027802,83738.0,272611.0
4.774655288906684,83754.0,272613.0
4.777157728785566,83758.0,272604.0
4.7796601686644475,83768.0,272641.0
4.78216260854333,83788.0,272639.0
4.7846650484222115,83800.0,272600.0
4.787167488301093,83815.0,272635.0
4.7896699281799755,83787.0,272639.0
4.792172368058857,83825.0,272618.0
4.7946748079377395,83833.0,272658.0
4.797177247816621,83833.0,272646.0
4.799679687695503,83844.0,272640.0
4.802182127574385,83871.0,272631.0
4.8046845674532666,83879.0,272631.0
4.807187007332149,83874.0,272614.0
4.8096894472110305,83895.0,272616.0
4.812191887089912,83937.0,272643.0
4.8146943269687945,83911.0,272620.0
4.817196766847676,83929.0,272636.0
4.8196992067265585,83912.0,272632.0
4.82220164660544,83937.0,272637.0
4.8247040864843225,83969.0,272637.0
4.827206526363204,83975.0,272632.0
4.829708966242086,83987.0,272657.0
4.832211406120968,83978.0,272661.0
4.8347138459998495,84008.0,272645.0
4.837216285878732,84033.0,272629.0
4.8397187257576135,84016.0,272641.0
4.842221165636495,84036.0,272662.0
4.8447236055153775,84047.0,272632.0
4.847226045394259,84068.0,272634.0
4.8497284852731415,84086.0,272651.0
4.852230925152023,84061.0,272638.0
4.854733365030905,84083.0,272649.0
4.857235804909787,84087.0,272650.0
4.859738244788669,84090.0,272636.0
4.862240684667551,84134.0,272642.0
4.8647431245464325,84136.0,272654.0
4.867245564425314,84129.0,272668.0
4.8697480043041965,84157.0,272647.0
4.872250444183078,84175.0,272624.0
4.8747528840619605,84177.0,272636.0
4.877255323940842,84191.0,272641.0
4.8797577638197245,84219.0,272650.0
4.882260203698606,84218.0,272655.0
4.884762643577488,84232.0,272655.0
4.88726508345637,84219.0,272636.0
4.8897675233352516,84218.0,272635.0
4.892269963214134,84255.0,272639.0
4.8947724030930155,84237.0,272654.0
4.897274842971897,84266.0,272641.0
4.8997772828507795,84275.0,272614.0
4.902279722729661,84284.0,272624.0
4.9047821626085435,84308.0,272610.0
4.907284602487425,84336.0,272640.0
4.909787042366307,84337.0,272631.0
4.912289482245189,84329.0,272614.0
4.914791922124071,84325.0,272597.0
4.917294362002953,84359.0,272629.0
4.9197968018818345,84341.0,272638.0
4.922299241760716,84380.0,272616.0
4.9248016816395985,84382.0,272639.0
4.92730412151848,84396.0,272629.0
4.9298065613973625,84423.0,272640.0
4.932309001276244,84429.0,272626.0
4.9348114411551265,84423.0,272642.0
4.937313881034008,84443.0,272648.0
4.93981632091289,84469.0,272645.0
4.942318760791772,84478.0,272646.0
4.944821200670654,84491.0,272631.0
4.947323640549536,84510.0,272669.0
4.9498260804284175,84509.0,272640.0
4.952328520307299,84507.0,272647.0
4.9548309601861815,84515.0,272654.0
4.957333400065063,84537.0,272629.0
4.9598358399439455,84537.0,272631.0
4.962338279822827,84558.0,272661.0
4.964840719701709,84589.0,272644.0
4.967343159580591,84575.0,272672.0
4.969845599459473,84587.0,272668.0
4.972348039338355,84599.0,272660.0
4.9748504792172366,84609.0,272675.0
4.977352919096119,84619.0,272666.0
4.9798553589750005,84646.0,272688.0
4.982357798853882,84660.0,272698.0
4.9848602387327645,84662.0,272665.0
4.987362678611646,84651.0,272642.0
4.9898651184905285,84654.0,272636.0
4.99236755836941,84665.0,272689.0
4.994869998248292,84690.0,272663.0
4.997372438127174,84669.0,272670.0
4.999874878006056,84705.0,272674.0
5.002377317884938,84696.0,272671.0
5.0048797577638195,84727.0,272663.0
5.007382197642701,84728.0,272636.0
5.0098846375215835,84757.0,272685.0
5.012387077400465,84754.0,272666.0
5.0148895172793475,84766.0,272687.0
5.017391957158229,84779.0,272665.0
5.019894397037111,84775.0,272665.0
5.022396836915993,84794.0,272657.0
5.024899276794875,84817.0,272663.0
5.027401716673757,84833.0,272663.0
5.029904156552639,84821.0,272673.0
5.032406596431521,84852.0,272672.0
5.0349090363104025,84852.0,272692.0
5.037411476189284,84847.0,272670.0
5.0399139160681665,84887.0,272671.0
5.042416355947048,84889.0,272671.0
5.0449187958259305,84882.0,272686.0
5.047421235704812,84911.0,272686.0
5.049923675583694,84920.0,272660.0
5.052426115462576,84904.0,272678.0
5.054928555341458,84909.0,272664.0
5.05743099522034,84943.0,272673.0
5.0599334350992216,84922.0,272645.0
5.062435874978103,84934.0,272673.0
5.0649383148569855,84948.0,272677.0
5.067440754735867,84933.0,272684.0
5.0699431946147495,84933.0,272675.0
5.072445634493631,84932.0,272670.0
5.074948074372513,84925.0,272662.0
5.077450514251395,84934.0,272642.0
5.079952954130277,84896.0,272664.0
5.082455394009159,84904.0,272652.0
5.084957833888041,84905.0,272657.0
5.087460273766923,84891.0,272631.0
5.0899627136458045,84874.0,272633.0
5.092465153524686,84834.0,272663.0
5.0949675934035685,84808.0,272651.0
5.09747003328245,84829.0,272642.0
5.0999724731613325,84798.0,272657.0
5.102474913040214,84767.0,272644.0
5.104977352919096,84738.0,272649.0
5.107479792797978,84696.0,272635.0
5.10998223267686,84695.0,272626.0
5.112484672555742,84647.0,272645.0
5.114987112434624,84631.0,272646.0
5.117489552313505,84579.0,272646.0
5.1199919921923875,84556.0,272645.0
5.122494432071269,84518.0,272653.0
5.1249968719501515,84500.0,272662.0
5.127499311829033,84444.0,272655.0
5.130001751707915,84395.0,272640.0
5.132504191586797,84371.0,272654.0
5.135006631465679,84331.0,272662.0
5.137509071344561,84290.0,272654.0
5.140011511223443,84252.0,272627.0
5.142513951102325,84205.0,272626.0
5.1450163909812066,84178.0,272644.0
5.147518830860088,84132.0,272636.0
5.1500212707389705,84085.0,272615.0
5.152523710617852,84072.0,272633.0
5.1550261504967345,84015.0,272642.0
5.157528590375616,84002.0,272627.0
5.160031030254498,83939.0,272642.0
5.16253347013338,83924.0,272627.0
5.165035910012262,83908.0,272611.0
5.167538349891144,83889.0,272619.0
5.170040789770026,83846.0,272608.0
5.172543229648907,83842.0,272579.0
5.1750456695277895,83786.0,272615.0
5.177548109406671,83728.0,272584.0
5.1800505492855535,83694.0,272583.0
5.182552989164435,83683.0,272606.0
5.185055429043317,83663.0,272624.0
5.187557868922199,83641.0,272611.0
5.190060308801081,83625.0,272590.0
5.192562748679963,83609.0,272596.0
5.195065188558845,83592.0,272614.0
5.197567628437727,83541.0,272611.0
5.200070068316609,83524.0,272604.0
5.20257250819549,83499.0,272593.0
5.2050749480743725,83472.0,272631.0
5.207577387953254,83464.0,272623.0
5.2100798278321365,83459.0,272589.0
5.212582267711018,83452.0,272605.0
5.2150847075899,83429.0,272610.0
5.217587147468782,83404.0,272564.0
5.220089587347664,83392.0,272615.0
5.222592027226546,83381.0,272612.0
5.225094467105428,83330.0,272604.0
5.227596906984309,83339.0,272584.0
5.230099346863192,83318.0,272585.0
5.232601786742073,83300.0,272578.0
5.2351042266209555,83282.0,272597.0
5.237606666499837,83281.0,272557.0
5.240109106378719,83260.0,272556.0
5.242611546257601,83240.0,272538.0
5.245113986136483,83230.0,272568.0
5.247616426015365,83222.0,272563.0
5.250118865894247,83199.0,272570.0
5.252621305773129,83180.0,272589.0
5.255123745652011,83187.0,272560.0
5.257626185530892,83191.0,272588.0
5.2601286254097745,83143.0,272583.0
5.262631065288656,83150.0,272558.0
5.2651335051675385,83143.0,272574.0
5.26763594504642,83137.0,272586.0
5.270138384925302,83141.0,272564.0
5.272640824804184,83144.0,272580.0
5.275143264683066,83135.0,272558.0
5.277645704561948,83132.0,272560.0
5.28014814444083,83119.0,272584.0
5.282650584319711,83119.0,272587.0
5.285153024198594,83119.0,272577.0
5.287655464077475,83118.0,272574.0
5.2901579039563575,83124.0,272582.0
5.292660343835239,83122.0,272580.0
5.2951627837141215,83145.0,272573.0
5.297665223593003,83138.0,272584.0
5.300167663471885,83132.0,272595.0
5.302670103350767,83118.0,272588.0
5.305172543229649,83122.0,272570.0
5.307674983108531,83160.0,272604.0
5.310177422987413,83162.0,272616.0
5.312679862866294,83154.0,272579.0
5.315182302745177,83169.0,272604.0
5.317684742624058,83188.0,272575.0
5.3201871825029405,83150.0,272584.0
5.322689622381822,83154.0,272577.0
5.325192062260704,83181.0,272579.0
5.327694502139586,83185.0,272581.0
5.330196942018468,83226.0,272577.0
5.33269938189735,83188.0,272584.0
5.335201821776232,83225.0,272602.0
5.337704261655113,83217.0,272588.0
5.340206701533996,83237.0,272613.0
5.342709141412877,83227.0,272624.0
5.3452115812917596,83260.0,272596.0
5.347714021170641,83263.0,272571.0
5.3502164610495235,83281.0,272576.0
5.352718900928405,83278.0,272578.0
5.355221340807287,83294.0,272565.0
5.357723780686169,83262.0,272566.0
5.360226220565051,83273.0,272591.0
5.362728660443933,83304.0,272564.0
5.365231100322815,83324.0,272614.0
5.367733540201696,83313.0,272580.0
5.370235980080579,83304.0,272563.0
5.37273841995946,83321.0,272574.0
5.3752408598383425,83325.0,272554.0
5.377743299717224,83322.0,272570.0
5.380245739596106,83351.0,272578.0
5.382748179474988,83346.0,272582.0
5.38525061935387,83362.0,272585.0
5.387753059232752,83344.0,272568.0
5.390255499111634,83353.0,272546.0
5.392757938990515,83348.0,272578.0
5.395260378869398,83343.0,272565.0
5.397762818748279,83375.0,272598.0
5.400265258627162,83343.0,272575.0
5.402767698506043,83383.0,272571.0
5.4052701383849255,83382.0,272596.0
5.407772578263807,83372.0,272623.0
5.410275018142689,83367.0,272618.0
5.412777458021571,83371.0,272564.0
5.415279897900453,83401.0,272602.0
5.417782337779335,83418.0,272581.0
5.420284777658217,83396.0,272579.0
5.422787217537098,83421.0,272548.0
5.425289657415981,83425.0,272589.0
5.427792097294862,83414.0,272573.0
5.4302945371737446,83437.0,272587.0
5.432796977052626,83426.0,272572.0
5.435299416931508,83442.0,272593.0
5.43780185681039,83448.0,272590.0
5.440304296689272,83444.0,272556.0
5.442806736568154,83456.0,272576.0
5.445309176447036,83472.0,272586.0
5.447811616325917,83458.0,272567.0
5.4503140562048,83479.0,272597.0
5.452816496083681,83483.0,272596.0
5.455318935962564,83486.0,272590.0
5.457821375841445,83481.0,272585.0
5.4603238157203275,83501.0,272575.0
5.462826255599209,83521.0,272583.0
5.465328695478091,83516.0,272563.0
5.467831135356973,83515.0,272591.0
5.470333575235855,83525.0,272573.0
5.472836015114737,83548.0,272569.0
5.475338454993619,83560.0,272606.0
5.4778408948725,83555.0,272611.0
5.480343334751383,83559.0,272585.0
5.482845774630264,83562.0,272580.0
5.485348214509147,83571.0,272612.0
5.487850654388028,83564.0,272580.0
5.49035309426691,83588.0,272613.0
5.492855534145792,83611.0,272590.0
5.495357974024674,83604.0,272586.0
5.497860413903556,83626.0,272590.0
5.500362853782438,83633.0,272597.0
5.502865293661319,83658.0,272599.0
5.505367733540202,83646.0,272616.0
5.507870173419083,83653.0,272599.0
5.510372613297966,83695.0,272608.0
5.512875053176847,83672.0,272580.0
5.5153774930557296,83700.0,272583.0
5.517879932934611,83698.0,272597.0
5.520382372813493,83717.0,272577.0
5.522884812692375,83732.0,272577.0
5.525387252571257,83734.0,272589.0
5.527889692450139,83737.0,272591.0
5.530392132329021,83758.0,272592.0
5.532894572207902,83766.0,272587.0
5.535397012086785,83773.0,272574.0
5.537899451965666,83792.0,272595.0
5.540401891844549,83824.0,272596.0
5.54290433172343,83827.0,272583.0
5.545406771602312,83819.0,272579.0
5.547909211481194,83846.0,272593.0
5.550411651360076,83856.0,272581.0
5.552914091238958,83857.0,272562.0
5.55541653111784,83873.0,272562.0
5.557918970996722,83879.0,272570.0
5.560421410875604,83908.0,272579.0
5.562923850754485,83902.0,272557.0
5.565426290633368,83917.0,272571.0
5.567928730512249,83939.0,272590.0
5.570431170391132,83938.0,272577.0
5.572933610270013,83958.0,272607.0
5.575436050148895,83984.0,272602.0
5.577938490027777,83995.0,272604.0
5.580440929906659,83971.0,272580.0
5.582943369785541,84000.0,272603.0
5.585445809664423,84005.0,272575.0
5.587948249543304,84018.0,272602.0
5.590450689422187,84040.0,272588.0
5.592953129301068,84054.0,272590.0
5.595455569179951,84046.0,272568.0
5.597958009058832,84065.0,272584.0
5.600460448937714,84070.0,272574.0
5.602962888816596,84073.0,272591.0
5.605465328695478,84101.0,272575.0
5.60796776857436,84117.0,272590.0
5.610470208453242,84134.0,272556.0
5.612972648332124,84148.0,272596.0
5.615475088211006,84156.0,272589.0
5.617977528089887,84172.0,272573.0
5.62047996796877,84155.0,272601.0
5.622982407847651,84177.0,272574.0
5.625484847726534,84187.0,272596.0
5.627987287605415,84189.0,272578.0
5.630489727484297,84191.0,272564.0
5.632992167363179,84224.0,272591.0
5.635494607242061,84220.0,272593.0
5.637997047120943,84244.0,272598.0
5.640499486999825,84247.0,272619.0
5.643001926878706,84249.0,272596.0
5.645504366757589,84246.0,272606.0
5.64800680663647,84264.0,272593.0
5.650509246515353,84295.0,272591.0
5.653011686394234,84285.0,272595.0
5.655514126273116,84310.0,272606.0
5.658016566151998,84310.0,272621.0
5.66051900603088,84319.0,272588.0
5.663021445909762,84346.0,272611.0
5.665523885788644,84325.0,272602.0
5.668026325667526,84376.0,272612.0
5.670528765546408,84359.0,272583.0
5.673031205425289,84388.0,272618.0
5.675533645304172,84377.0,272600.0
5.678036085183053,84409.0,272612.0
5.680538525061936,84410.0,272599.0
5.683040964940817,84405.0,272586.0
5.685543404819699,84427.0,272597.0
5.688045844698581,84411.0,272597.0
5.690548284577463,84436.0,272601.0
5.693050724456345,84453.0,272607.0
5.695553164335227,84449.0,272602.0
5.698055604214108,84479.0,272628.0
5.700558044092991,84494.0,272611.0
5.703060483971872,84483.0,272586.0
5.705562923850755,84504.0,272607.0
5.708065363729636,84507.0,272595.0
5.710567803608518,84528.0,272631.0
5.7130702434874,84544.0,272602.0
5.715572683366282,84546.0,272627.0
5.718075123245164,84540.0,272596.0
5.720577563124046,84561.0,272599.0
5.723080003002928,84593.0,272614.0
5.72558244288181,84579.0,272606.0
5.728084882760691,84604.0,272625.0
5.730587322639574,84587.0,272609.0
5.733089762518455,84628.0,272611.0
5.735592202397338,84652.0,272588.0
5.738094642276219,84652.0,272623.0
5.740597082155101,84655.0,272635.0
5.743099522033983,84677.0,272631.0
5.745601961912865,84673.0,272628.0
5.748104401791747,84687.0,272601.0
5.750606841670629,84704.0,272632.0
5.75310928154951,84702.0,272626.0
5.755611721428393,84691.0,272621.0
5.758114161307274,84706.0,272618.0
5.760616601186157,84738.0,272623.0
5.763119041065038,84751.0,272620.0
5.76562148094392,84758.0,272629.0
5.768123920822802,84757.0,272628.0
5.770626360701684,84793.0,272624.0
5.773128800580566,84802.0,272639.0
5.775631240459448,84810.0,272621.0
5.77813368033833,84804.0,272622.0
5.780636120217212,84824.0,272631.0
5.783138560096093,84842.0,272614.0
5.785640999974976,84848.0,272627.0
5.788143439853857,84857.0,272636.0
5.79064587973274,84862.0,272642.0
5.793148319611621,84888.0,272609.0
5.795650759490503,84872.0,272653.0
5.798153199369385,84900.0,272604.0
5.800655639248267,84891.0,272614.0
5.803158079127149,84907.0,272608.0
5.805660519006031,84918.0,272627.0
5.808162958884912,84945.0,272639.0
5.810665398763795,84968.0,272622.0
5.813167838642676,84941.0,272614.0
5.815670278521559,84971.0,272600.0
5.81817271840044,84984.0,272633.0
5.820675158279323,85005.0,272629.0
5.823177598158204,84991.0,272625.0
5.825680038037086,85028.0,272606.0
5.828182477915968,85017.0,272617.0
5.83068491779485,85034.0,272612.0
5.833187357673732,85061.0,272630.0
5.835689797552614,85038.0,272615.0
5.838192237431495,85068.0,272643.0
5.840694677310378,85063.0,272625.0
5.843197117189259,85074.0,272612.0
5.845699557068142,85083.0,272614.0
5.848201996947023,85118.0,272606.0
5.850704436825905,85099.0,272627.0
5.853206876704787,85115.0,272619.0
5.855709316583669,85136.0,272607.0
5.858211756462551,85091.0,272605.0
5.860714196341433,85083.0,272628.0
5.863216636220314,85103.0,272619.0
5.865719076099197,85103.0,272610.0
5.868221515978078,85103.0,272635.0
5.870723955856961,85116.0,272619.0
5.873226395735842,85111.0,272630.0
5.875728835614725,85102.0,272603.0
5.878231275493606,85069.0,272620.0
5.880733715372488,85045.0,272617.0
5.88323615525137,85036.0,272602.0
5.885738595130252,85029.0,272604.0
5.888241035009134,85018.0,272612.0
5.890743474888016,85005.0,272628.0
5.893245914766897,84942.0,272613.0
5.89574835464578,84949.0,272614.0
5.898250794524661,84934.0,272616.0
5.900753234403544,84886.0,272615.0
5.903255674282425,84830.0,272601.0
5.905758114161307,84835.0,272611.0
5.908260554040189,84816.0,272650.0
5.910762993919071,84760.0,272603.0
5.913265433797953,84717.0,272609.0
5.915767873676835,84680.0,272612.0
5.918270313555716,84639.0,272607.0
5.920772753434599,84618.0,272623.0
5.92327519331348,84577.0,272584.0
5.925777633192363,84537.0,272610.0
5.928280073071244,84497.0,272616.0
5.930782512950127,84460.0,272596.0
5.933284952829008,84440.0,272615.0
5.93578739270789,84409.0,272601.0
5.938289832586772,84383.0,272601.0
5.940792272465654,84322.0,272570.0
5.943294712344536,84274.0,272612.0
5.945797152223418,84251.0,272588.0
5.948299592102299,84174.0,272577.0
5.950802031981182,84183.0,272553.0
5.953304471860063,84147.0,272574.0
5.955806911738946,84107.0,272586.0
5.958309351617827,84101.0,272591.0
5.960811791496709,84058.0,272568.0
5.963314231375591,84038.0,272582.0
5.965816671254473,83982.0,272561.0
5.968319111133355,83962.0,272560.0
5.970821551012237,83951.0,272574.0
5.973323990891118,83929.0,272580.0
5.975826430770001,83873.0,272547.0
5.978328870648882,83848.0,272564.0
5.980831310527765,83849.0,272530.0
5.983333750406646,83809.0,272545.0
5.985836190285529,83798.0,272551.0
5.98833863016441,83778.0,272562.0
5.990841070043292,83757.0,272565.0
5.993343509922174,83743.0,272543.0
5.995845949801056,83733.0,272549.0
5.998348389679938,83682.0,272537.0
6.00085082955882,83649.0,272556.0
6.003353269437701,83654.0,272552.0
6.005855709316584,83632.0,272568.0
6.008358149195465,83638.0,272573.0
6.010860589074348,83611.0,272549.0
6.013363028953229,83589.0,272568.0
6.015865468832111,83590.0,272548.0
6.018367908710993,83549.0,272561.0
6.020870348589875,83534.0,272555.0
6.023372788468757,83524.0,272545.0
6.025875228347639,83540.0,272534.0
6.02837766822652,83514.0,272531.0
6.030880108105403,83502.0,272527.0
6.033382547984284,83475.0,272532.0
6.035884987863167,83489.0,272538.0
6.038387427742048,83466.0,272520.0
6.040889867620931,83464.0,272535.0
6.043392307499812,83431.0,272563.0
6.045894747378694,83433.0,272530.0
6.048397187257576,83398.0,272534.0
6.050899627136458,83422.0,272523.0
6.05340206701534,83383.0,272523.0
6.055904506894222,83367.0,272512.0
6.058406946773103,83387.0,272515.0
6.060909386651986,83370.0,272521.0
6.063411826530867,83378.0,272518.0
6.06591426640975,83381.0,272505.0
6.068416706288631,83346.0,272493.0
6.070919146167513,83349.0,272514.0
6.073421586046395,83309.0,272514.0
6.075924025925277,83311.0,272503.0
6.078426465804159,83313.0,272509.0
6.080928905683041,83318.0,272489.0
6.083431345561923,83333.0,272493.0
6.085933785440805,83309.0,272491.0
6.088436225319686,83333.0,272493.0
6.090938665198569,83329.0,272508.0
6.09344110507745,83335.0,272497.0
6.095943544956333,83325.0,272481.0
6.098445984835214,83360.0,272516.0
6.100948424714096,83349.0,272475.0
6.103450864592978,83325.0,272518.0
6.10595330447186,83345.0,272505.0
6.108455744350742,83371.0,272508.0
6.110958184229624,83357.0,272523.0
6.113460624108505,83390.0,272518.0
6.115963063987388,83389.0,272490.0
6.118465503866269,83370.0,272522.0
6.120967943745152,83395.0,272525.0
6.123470383624033,83398.0,272540.0
6.125972823502915,83399.0,272517.0
6.128475263381797,83398.0,272517.0
6.130977703260679,83404.0,272513.0
6.133480143139561,83426.0,272542.0
6.135982583018443,83428.0,272529.0
6.138485022897325,83409.0,272532.0
6.140987462776207,83447.0,272530.0
6.143489902655088,83429.0,272531.0
6.145992342533971,83434.0,272535.0
6.148494782412852,83438.0,272558.0
6.150997222291735,83460.0,272495.0
6.153499662170616,83472.0,272538.0
6.156002102049498,83475.0,272549.0
6.15850454192838,83470.0,272513.0
6.161006981807262,83480.0,272531.0
6.163509421686144,83449.0,272543.0
6.166011861565026,83478.0,272518.0
6.168514301443907,83471.0,272519.0
6.17101674132279,83459.0,272549.0
6.173519181201671,83508.0,272534.0
6.176021621080554,83506.0,272546.0
6.178524060959435,83499.0,272520.0
6.181026500838317,83491.0,272527.0
6.183528940717199,83500.0,272525.0
6.186031380596081,83508.0,272524.0
6.188533820474963,83490.0,272528.0
6.191036260353845,83500.0,272533.0
6.193538700232727,83510.0,272498.0
6.196041140111609,83483.0,272533.0
6.19854357999049,83541.0,272530.0
6.201046019869373,83533.0,272509.0
6.203548459748254,83517.0,272526.0
6.206050899627137,83532.0,272555.0
6.208553339506018,83522.0,272527.0
6.2110557793849,83510.0,272526.0
6.213558219263782,83524.0,272517.0
6.216060659142664,83542.0,272529.0
6.218563099021546,83528.0,272518.0
6.221065538900428,83541.0,272532.0
6.223567978779309,83530.0,272541.0
6.226070418658192,83522.0,272514.0
6.228572858537073,83531.0,272524.0
6.231075298415956,83571.0,272560.0
6.233577738294837,83548.0,272516.0
6.236080178173719,83540.0,272545.0
6.238582618052601,83582.0,272536.0
6.241085057931483,83580.0,272532.0
6.243587497810365,83592.0,272543.0
6.246089937689247,83573.0,272520.0
6.248592377568129,83569.0,272516.0
6.251094817447011,83569.0,272507.0
6.253597257325892,83585.0,272542.0
6.256099697204775,83616.0,272505.0
6.258602137083656,83614.0,272518.0
6.261104576962539,83618.0,272500.0
6.26360701684142,83609.0,272531.0
6.266109456720302,83605.0,272543.0
6.268611896599184,83633.0,272539.0
6.271114336478066,83625.0,272534.0
6.273616776356948,83650.0,272530.0
6.27611921623583,83642.0,272524.0
6.278621656114711,83658.0,272516.0
6.281124095993594,83671.0,272530.0
6.283626535872475,83669.0,272533.0
6.286128975751358,83658.0,272546.0
6.288631415630239,83699.0,272536.0
6.291133855509121,83701.0,272558.0
6.293636295388003,83681.0,272545.0
6.296138735266885,83708.0,272520.0
6.298641175145767,83706.0,272532.0
6.301143615024649,83734.0,272560.0
6.303646054903531,83749.0,272536.0
6.306148494782413,83747.0,272513.0
6.308650934661294,83764.0,272544.0
6.311153374540177,83752.0,272526.0
6.313655814419058,83764.0,272577.0
6.316158254297941,83786.0,272540.0
6.318660694176822,83795.0,272530.0
6.321163134055704,83806.0,272566.0
6.323665573934586,83805.0,272539.0
6.326168013813468,83813.0,272539.0
6.32867045369235,83850.0,272530.0
6.331172893571232,83842.0,272541.0
6.333675333450113,83865.0,272553.0
6.336177773328996,83848.0,272533.0
6.338680213207877,83854.0,272537.0
6.34118265308676,83912.0,272543.0
6.343685092965641,83876.0,272573.0
6.346187532844524,83892.0,272533.0
6.348689972723405,83908.0,272544.0
6.351192412602287,83932.0,272533.0
6.353694852481169,83953.0,272546.0
6.356197292360051,83932.0,272529.0
6.358699732238933,83954.0,272530.0
6.361202172117815,83955.0,272538.0
6.363704611996696,83946.0,272541.0
6.366207051875579,83995.0,272569.0
6.36870949175446,83994.0,272554.0
6.371211931633343,83997.0,272545.0
6.373714371512224,84003.0,272546.0
6.376216811391106,84010.0,272567.0
6.378719251269988,84022.0,272572.0
6.38122169114887,84058.0,272527.0
6.383724131027752,84059.0,272539.0
6.386226570906634,84051.0,272563.0
6.388729010785515,84053.0,272550.0
6.391231450664398,84080.0,272525.0
6.393733890543279,84082.0,272537.0
6.396236330422162,84105.0,272541.0
6.398738770301043,84131.0,272517.0
6.401241210179926,84136.0,272557.0
6.403743650058807,84138.0,272535.0
6.406246089937689,84150.0,272580.0
6.408748529816571,84169.0,272564.0
6.411250969695453,84165.0,272560.0
6.413753409574335,84204.0,272564.0
6.416255849453217,84172.0,272551.0
6.418758289332098,84188.0,272548.0
6.421260729210981,84198.0,272550.0
6.423763169089862,84226.0,272572.0
6.426265608968745,84204.0,272559.0
6.428768048847626,84223.0,272584.0
6.431270488726508,84259.0,272585.0
6.43377292860539,84226.0,272549.0
6.436275368484272,84237.0,272560.0
6.438777808363154,84275.0,272578.0
6.441280248242036,84264.0,272591.0
6.443782688120917,84286.0,272597.0
6.4462851279998,84307.0,272551.0
6.448787567878681,84291.0,272576.0
6.451290007757564,84339.0,272567.0
6.453792447636445,84312.0,272570.0
6.456294887515328,84326.0,272561.0
6.458797327394209,84334.0,272561.0
6.461299767273091,84329.0,272563.0
6.463802207151973,84359.0,272574.0
6.466304647030855,84352.0,272562.0
6.468807086909737,84364.0,272569.0
6.471309526788619,84369.0,272574.0
6.4738119666675,84375.0,272585.0
6.476314406546383,84392.0,272588.0
6.478816846425264,84410.0,272580.0
6.481319286304147,84408.0,272566.0
6.483821726183028,84448.0,272568.0
6.48632416606191,84426.0,272564.0
6.488826605940792,84411.0,272570.0
6.491329045819674,84450.0,272572.0
6.493831485698556,84456.0,272577.0
6.496333925577438,84471.0,272585.0
6.498836365456319,84467.0,272564.0
6.501338805335202,84508.0,272572.0
6.503841245214083,84494.0,272593.0
6.506343685092966,84517.0,272594.0
6.508846124971847,84520.0,272582.0
6.51134856485073,84536.0,272607.0
6.513851004729611,84545.0,272584.0
6.516353444608493,84538.0,272600.0
6.518855884487375,84558.0,272582.0
6.521358324366257,84561.0,272601.0
6.523860764245139,84571.0,272577.0
6.526363204124021,84560.0,272611.0
6.528865644002902,84590.0,272610.0
6.531368083881785,84619.0,272591.0
6.533870523760666,84620.0,272600.0
6.536372963639549,84607.0,272566.0
6.53887540351843,84629.0,272596.0
6.541377843397312,84646.0,272573.0
6.543880283276194,84642.0,272578.0
6.546382723155076,84655.0,272552.0
6.548885163033958,84703.0,272611.0
6.55138760291284,84664.0,272590.0
6.553890042791721,84706.0,272572.0
6.556392482670604,84688.0,272603.0
6.558894922549485,84724.0,272625.0
6.561397362428368,84719.0,272581.0
6.563899802307249,84724.0,272581.0
6.566402242186132,84705.0,272605.0
6.568904682065013,84740.0,272604.0
6.571407121943895,84740.0,272584.0
6.573909561822777,84775.0,272601.0
6.576412001701659,84759.0,272581.0
6.578914441580541,84815.0,272601.0
6.581416881459423,84793.0,272596.0
6.583919321338304,84802.0,272575.0
6.586421761217187,84787.0,272581.0
6.588924201096068,84815.0,272607.0
6.591426640974951,84813.0,272597.0
6.593929080853832,84844.0,272593.0
6.596431520732714,84836.0,272581.0
6.598933960611596,84860.0,272603.0
6.601436400490478,84867.0,272615.0
6.60393884036936,84867.0,272576.0
6.606441280248242,84868.0,272594.0
6.608943720127123,84902.0,272581.0
6.611446160006006,84904.0,272592.0
6.613948599884887,84917.0,272600.0
6.61645103976377,84918.0,272606.0
6.618953479642651,84931.0,272570.0
6.621455919521534,84928.0,272586.0
6.623958359400415,84946.0,272585.0
6.626460799279297,84934.0,272583.0
6.628963239158179,84963.0,272599.0
6.631465679037061,84974.0,272591.0
6.633968118915943,84971.0,272600.0
6.636470558794825,84993.0,272625.0
6.638972998673706,84964.0,272593.0
6.641475438552589,84999.0,272603.0
6.64397787843147,84996.0,272627.0
6.646480318310353,85032.0,272610.0
6.648982758189234,85008.0,272624.0
6.651485198068116,84997.0,272606.0
6.653987637946998,85041.0,272595.0
6.65649007782588,85046.0,272613.0
6.658992517704762,85015.0,272600.0
6.661494957583644,85025.0,272620.0
6.663997397462526,85025.0,272598.0
6.666499837341408,85031.0,272614.0
6.669002277220289,85000.0,272605.0
6.671504717099172,84988.0,272614.0
6.674007156978053,85002.0,272614.0
6.676509596856936,84986.0,272604.0
6.679012036735817,84963.0,272582.0
6.681514476614699,84958.0,272603.0
6.684016916493581,84951.0,272593.0
6.686519356372463,84929.0,272554.0
6.689021796251345,84914.0,272615.0
6.691524236130227,84865.0,272607.0
6.694026676009108,84849.0,272603.0
6.696529115887991,84818.0,272607.0
6.699031555766872,84815.0,272578.0
6.701533995645755,84791.0,272584.0
6.704036435524636,84742.0,272575.0
6.706538875403518,84714.0,272598.0
6.7090413152824,84674.0,272566.0
6.711543755161282,84639.0,272565.0
6.714046195040164,84614.0,272564.0
6.716548634919046,84551.0,272561.0
6.719051074797928,84517.0,272544.0
6.72155351467681,84498.0,272552.0
6.724055954555691,84455.0,272564.0
6.726558394434574,84399.0,272586.0
6.729060834313455,84344.0,272571.0
6.731563274192338,84306.0,272567.0
6.734065714071219,84263.0,272595.0
6.736568153950101,84239.0,272531.0
6.739070593828983,84206.0,272558.0
6.741573033707865,84163.0,272550.0
6.744075473586747,84103.0,272565.0
6.746577913465629,84070.0,272560.0
6.74908035334451,84026.0,272534.0
6.751582793223393,84003.0,272546.0
6.754085233102274,83974.0,272562.0
6.756587672981157,83923.0,272552.0
6.759090112860038,83897.0,272523.0
6.76159255273892,83842.0,272529.0
6.764094992617802,83815.0,272554.0
6.766597432496684,83795.0,272536.0
6.769099872375566,83739.0,272515.0
6.771602312254448,83704.0,272546.0
6.77410475213333,83675.0,272515.0
6.776607192012212,83648.0,272533.0
6.779109631891093,83629.0,272533.0
6.781612071769976,83598.0,272511.0
6.784114511648857,83571.0,272502.0
6.78661695152774,83538.0,272519.0
6.789119391406621,83534.0,272537.0
6.791621831285503,83509.0,272531.0
6.794124271164385,83492.0,272520.0
6.796626711043267,83458.0,272522.0
6.799129150922149,83452.0,272492.0
6.801631590801031,83418.0,272506.0
6.804134030679912,83390.0,272503.0
6.806636470558795,83386.0,272489.0
6.809138910437676,83360.0,272506.0
6.811641350316559,83316.0,272492.0
6.81414379019544,83308.0,272505.0
6.816646230074322,83320.0,272503.0
6.819148669953204,83303.0,272480.0
6.821651109832086,83255.0,272465.0
6.824153549710968,83278.0,272480.0
6.82665598958985,83252.0,272481.0
6.829158429468732,83227.0,272515.0
6.831660869347614,83205.0,272472.0
6.834163309226495,83198.0,272469.0
6.836665749105378,83171.0,272496.0
6.839168188984259,83152.0,272491.0
6.841670628863142,83173.0,272475.0
6.844173068742023,83151.0,272487.0
6.846675508620905,83101.0,272445.0
6.849177948499787,83088.0,272460.0
6.851680388378669,83088.0,272479.0
6.854182828257551,83073.0,272464.0
6.856685268136433,83077.0,272493.0
6.859187708015314,83047.0,272495.0
6.861690147894197,83050.0,272474.0
6.864192587773078,83031.0,272490.0
6.866695027651961,83008.0,272468.0
6.869197467530842,83006.0,272492.0
6.871699907409724,82995.0,272484.0
6.874202347288606,82996.0,272485.0
6.876704787167488,82983.0,272489.0
6.87920722704637,82963.0,272478.0
6.881709666925252,82993.0,272499.0
6.884212106804134,83006.0,272497.0
6.886714546683016,82960.0,272474.0
6.889216986561897,82967.0,272486.0
6.89171942644078,82999.0,272504.0
6.894221866319661,82986.0,272498.0
6.896724306198544,82998.0,272477.0
6.899226746077425,82977.0,272464.0
6.901729185956307,82986.0,272474.0
6.904231625835189,82975.0,272482.0
6.906734065714071,82964.0,272457.0
6.909236505592953,82993.0,272463.0
6.911738945471835,82948.0,272469.0
6.914241385350716,82987.0,272458.0
6.916743825229599,82979.0,272475.0
6.91924626510848,83007.0,272466.0
6.921748704987363,83006.0,272466.0
6.924251144866244,83015.0,272471.0
6.926753584745127,82999.0,272480.0
6.929256024624008,83015.0,272454.0
6.93175846450289,83004.0,272471.0
6.934260904381772,83002.0,272478.0
6.936763344260654,83007.0,272470.0
6.939265784139536,83032.0,272480.0
6.941768224018418,83030.0,272491.0
6.944270663897299,83026.0,272483.0
6.946773103776182,83037.0,272448.0
6.949275543655063,83043.0,272471.0
6.951777983533946,83046.0,272486.0
6.954280423412827,83053.0,272487.0
6.956782863291709,83043.0,272465.0
6.959285303170591,83061.0,272476.0
6.961787743049473,83058.0,272443.0
6.964290182928355,83066.0,272471.0
6.966792622807237,83042.0,272452.0
6.969295062686118,83047.0,272465.0
6.971797502565001,83046.0,272448.0
6.974299942443882,83076.0,272488.0
6.976802382322765,83060.0,272470.0
6.979304822201646,83061.0,272459.0
6.981807262080529,83069.0,272464.0
6.98430970195941,83078.0,272452.0
6.986812141838292,83051.0,272463.0
6.989314581717174,83039.0,272482.0
6.991817021596056,83053.0,272440.0
6.994319461474938,83058.0,272487.0
6.99682190135382,83056.0,272439.0
6.999324341232701,83042.0,272481.0
7.001826781111584,83061.0,272469.0
7.004329220990465,83045.0,272469.0
7.006831660869348,83064.0,272477.0
7.009334100748229,83066.0,272490.0
7.011836540627111,83068.0,272500.0
7.014338980505993,83070.0,272473.0
7.016841420384875,83050.0,272471.0
7.019343860263757,83076.0,272455.0
7.021846300142639,83063.0,272452.0
7.02434874002152,83049.0,272452.0
7.026851179900403,83050.0,272456.0
7.029353619779284,83064.0,272451.0
7.031856059658167,83086.0,272469.0
7.034358499537048,83101.0,272470.0
7.036860939415931,83104.0,272454.0
7.039363379294812,83095.0,272449.0
7.041865819173694,83108.0,272442.0
7.044368259052576,83096.0,272482.0
7.046870698931458,83103.0,272470.0
7.04937313881034,83086.0,272486.0
7.051875578689222,83094.0,272470.0
7.054378018568103,83133.0,272463.0
7.056880458446986,83122.0,272489.0
7.059382898325867,83117.0,272480.0
7.06188533820475,83126.0,272496.0
7.064387778083631,83096.0,272475.0
7.066890217962513,83148.0,272506.0
7.069392657841395,83124.0,272466.0
7.071895097720277,83157.0,272468.0
7.074397537599159,83144.0,272467.0
7.076899977478041,83145.0,272459.0
7.079402417356922,83142.0,272477.0
7.081904857235805,83167.0,272477.0
7.084407297114686,83146.0,272455.0
7.086909736993569,83174.0,272453.0
7.08941217687245,83167.0,272468.0
7.091914616751333,83206.0,272455.0
7.094417056630214,83224.0,272484.0
7.096919496509096,83224.0,272498.0
7.099421936387978,83225.0,272464.0
7.10192437626686,83240.0,272466.0
7.104426816145742,83228.0,272465.0
7.106929256024624,83247.0,272455.0
7.109431695903505,83259.0,272470.0
7.111934135782388,83250.0,272458.0
7.114436575661269,83275.0,272474.0
7.116939015540152,83272.0,272479.0
7.119441455419033,83290.0,272478.0
7.121943895297915,83304.0,272476.0
7.124446335176797,83312.0,272474.0
7.126948775055679,83292.0,272486.0
7.129451214934561,83291.0,272483.0
7.131953654813443,83329.0,272497.0
7.134456094692324,83344.0,272474.0
7.136958534571207,83361.0,272495.0
7.139460974450088,83364.0,272453.0
7.141963414328971,83381.0,272471.0
7.144465854207852,83376.0,272479.0
7.146968294086735,83402.0,272455.0
7.149470733965616,83387.0,272482.0
7.151973173844498,83411.0,272473.0
7.15447561372338,83432.0,272478.0
7.156978053602262,83425.0,272472.0
7.159480493481144,83467.0,272491.0
7.161982933360026,83463.0,272491.0
7.164485373238907,83437.0,272501.0
7.16698781311779,83485.0,272492.0
7.169490252996671,83486.0,272486.0
7.171992692875554,83517.0,272486.0
7.174495132754435,83510.0,272506.0
7.176997572633317,83523.0,272475.0
7.179500012512199,83510.0,272485.0
7.182002452391081,83538.0,272493.0
7.184504892269963,83575.0,272518.0
7.187007332148845,83556.0,272503.0
7.189509772027727,83572.0,272484.0
7.192012211906609,83583.0,272520.0
7.19451465178549,83574.0,272518.0
7.197017091664373,83608.0,272509.0
7.199519531543254,83610.0,272511.0
7.202021971422137,83636.0,272496.0
7.204524411301018,83644.0,272512.0
7.2070268511799,83626.0,272521.0
7.209529291058782,83658.0,272508.0
7.212031730937664,83678.0,272504.0
7.214534170816546,83684.0,272503.0
7.217036610695428,83696.0,272517.0
7.219539050574309,83705.0,272535.0
7.222041490453192,83706.0,272516.0
7.224543930332073,83710.0,272514.0
7.227046370210956,83724.0,272510.0
7.229548810089837,83736.0,272500.0
7.232051249968719,83741.0,272508.0
7.234553689847601,83752.0,272524.0
7.237056129726483,83759.0,272507.0
7.239558569605365,83780.0,272533.0
7.242061009484247,83775.0,272513.0
7.244563449363129,83779.0,272506.0
7.247065889242011,83810.0,272519.0
7.249568329120892,83797.0,272510.0
7.252070768999775,83809.0,272512.0
7.254573208878656,83834.0,272498.0
7.257075648757539,83824.0,272512.0
7.25957808863642,83856.0,272498.0
7.262080528515302,83875.0,272506.0
7.264582968394184,83849.0,272492.0
7.267085408273066,83875.0,272522.0
7.269587848151948,83865.0,272519.0
7.27209028803083,83893.0,272516.0
7.274592727909711,83892.0,272505.0
7.277095167788594,83930.0,272517.0
7.279597607667475,83895.0,272493.0
7.282100047546358,83919.0,272507.0
7.284602487425239,83935.0,272528.0
7.287104927304121,83949.0,272517.0
7.289607367183003,83970.0,272504.0
7.292109807061885,83978.0,272460.0
7.294612246940767,83977.0,272502.0
7.297114686819649,83982.0,272499.0
7.299617126698531,84011.0,272514.0
7.302119566577413,84041.0,272510.0
7.304622006456294,84045.0,272507.0
7.307124446335177,84058.0,272491.0
7.309626886214058,84042.0,272541.0
7.312129326092941,84075.0,272516.0
7.314631765971822,84072.0,272489.0
7.317134205850704,84083.0,272512.0
7.319636645729586,84094.0,272520.0
7.322139085608468,84104.0,272520.0
7.32464152548735,84111.0,272517.0
7.327143965366232,84130.0,272527.0
7.329646405245113,84173.0,272517.0
7.332148845123996,84146.0,272526.0
7.334651285002877,84157.0,272533.0
7.33715372488176,84174.0,272520.0
7.339656164760641,84219.0,272558.0
7.342158604639523,84220.0,272520.0
7.344661044518405,84227.0,272536.0
7.347163484397287,84220.0,272534.0
7.349665924276169,84238.0,272562.0
7.352168364155051,84239.0,272528.0
7.354670804033933,84264.0,272544.0
7.357173243912815,84267.0,272546.0
7.359675683791696,84296.0,272537.0
7.362178123670579,84285.0,272541.0
7.36468056354946,84304.0,272554.0
7.367183003428343,84306.0,272543.0
7.369685443307224,84311.0,272529.0
7.372187883186106,84333.0,272508.0
7.374690323064988,84340.0,272545.0
7.37719276294387,84344.0,272545.0
7.379695202822752,84373.0,272535.0
7.382197642701634,84387.0,272539.0
7.384700082580515,84380.0,272533.0
7.387202522459398,84391.0,272523.0
7.389704962338279,84405.0,272545.0
7.392207402217162,84420.0,272550.0
7.394709842096043,84457.0,272536.0
7.397212281974925,84451.0,272529.0
7.399714721853807,84454.0,272537.0
7.402217161732689,84473.0,272547.0
7.404719601611571,84487.0,272537.0
7.407222041490453,84518.0,272548.0
7.409724481369335,84509.0,272538.0
7.412226921248217,84525.0,272518.0
7.414729361127098,84526.0,272554.0
7.417231801005981,84536.0,272534.0
7.419734240884862,84544.0,272526.0
7.422236680763745,84551.0,272537.0
7.424739120642626,84568.0,272553.0
7.427241560521508,84576.0,272546.0
7.42974400040039,84585.0,272535.0
7.432246440279272,84598.0,272535.0
7.434748880158154,84605.0,272559.0
7.437251320037036,84617.0,272525.0
7.439753759915917,84625.0,272551.0
7.4422561997948,84605.0,272548.0
7.444758639673681,84631.0,272533.0
7.447261079552564,84628.0,272549.0
7.449763519431445,84645.0,272561.0
7.452265959310328,84641.0,272574.0
7.454768399189209,84638.0,272558.0
7.457270839068091,84633.0,272529.0
7.459773278946973,84648.0,272534.0
7.462275718825855,84627.0,272538.0
7.464778158704737,84642.0,272543.0
7.467280598583619,84635.0,272545.0
7.4697830384625,84630.0,272500.0
7.472285478341383,84590.0,272527.0
7.474787918220264,84593.0,272528.0
7.477290358099147,84590.0,272549.0
7.479792797978028,84576.0,272552.0
7.48229523785691,84559.0,272519.0
7.484797677735792,84556.0,272527.0
7.487300117614674,84532.0,272504.0
7.489802557493556,84529.0,272511.0
7.492304997372438,84492.0,272527.0
7.494807437251319,84462.0,272513.0
7.497309877130202,84426.0,272505.0
7.499812317009083,84407.0,272525.0
7.502314756887966,84380.0,272510.0
7.504817196766847,84355.0,272524.0
7.50731963664573,84339.0,272509.0
7.509822076524611,84283.0,272511.0
7.512324516403493,84238.0,272510.0
7.514826956282375,84219.0,272511.0
7.517329396161257,84178.0,272521.0
7.519831836040139,84158.0,272507.0
7.522334275919021,84134.0,272511.0
7.524836715797902,84077.0,272483.0
7.527339155676785,84040.0,272491.0
7.529841595555666,84007.0,272479.0
7.532344035434549,83974.0,272494.0
7.53484647531343,83954.0,272496.0
7.537348915192312,83899.0,272489.0
7.539851355071194,83891.0,272488.0
7.542353794950076,83820.0,272490.0
7.544856234828958,83802.0,272494.0
7.54735867470784,83770.0,272494.0
7.549861114586721,83720.0,272474.0
7.552363554465604,83704.0,272497.0
7.554865994344485,83656.0,272497.0
7.557368434223368,83663.0,272495.0
7.559870874102249,83623.0,272487.0
7.562373313981132,83607.0,272494.0
7.564875753860013,83556.0,272478.0
7.567378193738895,83542.0,272488.0
7.569880633617777,83516.0,272504.0
7.572383073496659,83500.0,272449.0
7.574885513375541,83432.0,272461.0
7.577387953254423,83435.0,272483.0
7.579890393133304,83445.0,272456.0
7.582392833012187,83432.0,272512.0
7.584895272891068,83373.0,272476.0
7.587397712769951,83354.0,272487.0
7.589900152648832,83352.0,272488.0
7.592402592527714,83328.0,272487.0
7.594905032406596,83332.0,272471.0
7.597407472285478,83286.0,272464.0
7.59990991216436,83291.0,272482.0
7.602412352043242,83280.0,272460.0
7.604914791922123,83233.0,272450.0
7.607417231801006,83230.0,272487.0
7.609919671679887,83216.0,272475.0
7.61242211155877,83229.0,272464.0
7.614924551437651,83213.0,272442.0
7.617426991316534,83200.0,272475.0
7.619929431195415,83180.0,272479.0
7.622431871074297,83176.0,272469.0
7.624934310953179,83183.0,272429.0
7.627436750832061,83147.0,272455.0
7.629939190710943,83156.0,272471.0
7.632441630589825,83121.0,272481.0
7.634944070468706,83124.0,272470.0
7.637446510347589,83123.0,272456.0
7.63994895022647,83139.0,272445.0
7.642451390105353,83109.0,272434.0
7.644953829984234,83121.0,272476.0
7.647456269863116,83061.0,272447.0
7.649958709741998,83079.0,272440.0
7.65246114962088,83064.0,272462.0
7.654963589499762,83075.0,272475.0
7.657466029378644,83060.0,272433.0
7.659968469257525,83082.0,272461.0
7.662470909136408,83081.0,272463.0
7.664973349015289,83048.0,272445.0
7.667475788894172,83057.0,272486.0
7.669978228773053,83066.0,272463.0
7.672480668651936,83066.0,272462.0
7.674983108530817,83058.0,272491.0
7.677485548409699,83077.0,272434.0
7.679987988288581,83058.0,272430.0
7.682490428167463,83058.0,272463.0
7.684992868046345,83091.0,272445.0
7.687495307925227,83081.0,272473.0
7.689997747804108,83103.0,272464.0
7.692500187682991,83123.0,272485.0
7.695002627561872,83110.0,272453.0
7.697505067440755,83113.0,272467.0
7.700007507319636,83123.0,272482.0
7.702509947198518,83115.0,272468.0
7.7050123870774,83127.0,272460.0
7.707514826956282,83135.0,272442.0
7.710017266835164,83136.0,272457.0
7.712519706714046,83153.0,272449.0
7.715022146592927,83168.0,272453.0
7.71752458647181,83171.0,272446.0
7.720027026350691,83178.0,272481.0
7.722529466229574,83194.0,272459.0
7.725031906108455,83216.0,272454.0
7.727534345987338,83214.0,272476.0
7.730036785866219,83212.0,272495.0
7.732539225745101,83216.0,272496.0
7.735041665623983,83242.0,272435.0
7.737544105502865,83231.0,272462.0
7.740046545381747,83212.0,272465.0
7.742548985260629,83218.0,272462.0
7.74505142513951,83222.0,272482.0
7.747553865018393,83262.0,272481.0
7.750056304897274,83267.0,272475.0
7.752558744776157,83271.0,272474.0
7.755061184655038,83254.0,272481.0
7.75756362453392,83282.0,272478.0
7.760066064412802,83297.0,272465.0
7.762568504291684,83265.0,272440.0
7.765070944170566,83286.0,272457.0
7.767573384049448,83272.0,272465.0
7.77007582392833,83268.0,272465.0
7.772578263807212,83272.0,272479.0
7.775080703686093,83267.0,272451.0
7.777583143564976,83258.0,272467.0
7.780085583443857,83282.0,272496.0
7.78258802332274,83272.0,272466.0
7.785090463201621,83268.0,272477.0
7.787592903080503,83296.0,272463.0
7.790095342959385,83292.0,272482.0
7.792597782838267,83296.0,272479.0
7.795100222717149,83282.0,272452.0
7.797602662596031,83270.0,272481.0
7.800105102474912,83314.0,272458.0
7.802607542353795,83299.0,272469.0
7.805109982232676,83288.0,272471.0
7.807612422111559,83327.0,272487.0
7.81011486199044,83315.0,272457.0
7.812617301869322,83305.0,272473.0
7.815119741748204,83317.0,272485.0
7.817622181627086,83318.0,272443.0
7.820124621505968,83316.0,272479.0
7.82262706138485,83344.0,272472.0
7.825129501263732,83331.0,272458.0
7.827631941142614,83356.0,272470.0
7.830134381021495,83342.0,272472.0
7.832636820900378,83350.0,272466.0
7.835139260779259,83367.0,272489.0
7.837641700658142,83363.0,272487.0
7.840144140537023,83371.0,272473.0
7.842646580415905,83399.0,272470.0
7.845149020294787,83384.0,272470.0
7.847651460173669,83373.0,272460.0
7.850153900052551,83399.0,272456.0
7.852656339931433,83401.0,272474.0
7.855158779810314,83416.0,272470.0
7.857661219689197,83415.0,272463.0
7.860163659568078,83427.0,272477.0
7.862666099446961,83432.0,272454.0
7.865168539325842,83449.0,272455.0
7.867670979204724,83426.0,272485.0
7.870173419083606,83460.0,272485.0
7.872675858962488,83468.0,272463.0
7.87517829884137,83465.0,272493.0
7.877680738720252,83462.0,272470.0
7.880183178599134,83499.0,272491.0
7.882685618478016,83473.0,272477.0
7.885188058356897,83513.0,272475.0
7.88769049823578,83538.0,272467.0
7.890192938114661,83530.0,272484.0
7.892695377993544,83534.0,272475.0
7.895197817872425,83541.0,272501.0
7.897700257751307,83544.0,272499.0
7.900202697630189,83580.0,272517.0
7.902705137509071,83580.0,272490.0
7.905207577387953,83572.0,272499.0
7.907710017266835,83620.0,272488.0
7.910212457145716,83633.0,272507.0
7.912714897024599,83611.0,272495.0
7.91521733690348,83639.0,272517.0
7.917719776782363,83651.0,272497.0
7.920222216661244,83653.0,272487.0
7.922724656540126,83666.0,272515.0
7.925227096419008,83697.0,272513.0
7.92772953629789,83691.0,272503.0
7.930231976176772,83715.0,272493.0
7.932734416055654,83710.0,272506.0
7.935236855934536,83723.0,272503.0
7.937739295813418,83728.0,272505.0
7.940241735692299,83763.0,272508.0
7.942744175571182,83793.0,272487.0
7.945246615450063,83752.0,272507.0
7.947749055328946,83779.0,272514.0
7.950251495207827,83797.0,272517.0
7.952753935086709,83812.0,272506.0
7.955256374965591,83812.0,272500.0
7.957758814844473,83825.0,272495.0
7.960261254723355,83848.0,272504.0
7.962763694602237,83847.0,272527.0
7.965266134481118,83843.0,272493.0
7.967768574360001,83876.0,272515.0
7.970271014238882,83883.0,272536.0
7.972773454117765,83899.0,272516.0
7.975275893996646,83886.0,272547.0
7.977778333875528,83889.0,272530.0
7.98028077375441,83906.0,272508.0
7.982783213633292,83934.0,272522.0
7.985285653512174,83942.0,272505.0
7.987788093391056,83949.0,272529.0
7.990290533269938,83986.0,272540.0
7.99279297314882,83965.0,272465.0
7.995295413027701,83992.0,272532.0
7.997797852906584,83969.0,272514.0
8.000300292785466,83991.0,272513.0
8.002802732664348,84006.0,272529.0
8.00530517254323,84045.0,272518.0
8.007807612422111,84019.0,272530.0
8.010310052300992,84053.0,272529.0
8.012812492179876,84050.0,272509.0
8.015314932058757,84062.0,272503.0
8.017817371937639,84084.0,272524.0
8.02031981181652,84075.0,272527.0
8.022822251695402,84097.0,272510.0
8.025324691574285,84095.0,272532.0
8.027827131453167,84099.0,272523.0
8.030329571332048,84115.0,272531.0
8.03283201121093,84127.0,272517.0
8.035334451089811,84132.0,272554.0
8.037836890968695,84130.0,272528.0
8.040339330847576,84163.0,272532.0
8.042841770726458,84157.0,272551.0
8.04534421060534,84162.0,272509.0
8.047846650484221,84184.0,272533.0
8.050349090363104,84163.0,272538.0
8.052851530241986,84191.0,272540.0
8.055353970120867,84189.0,272524.0
8.057856409999749,84230.0,272532.0
8.060358849878632,84235.0,272526.0
8.062861289757514,84239.0,272529.0
8.065363729636395,84262.0,272539.0
8.067866169515277,84257.0,272519.0
8.070368609394158,84263.0,272537.0
8.072871049273042,84262.0,272529.0
8.075373489151923,84278.0,272530.0
8.077875929030805,84298.0,272549.0
8.080378368909686,84327.0,272526.0
8.082880808788568,84325.0,272532.0
8.085383248667451,84349.0,272511.0
8.087885688546333,84327.0,272523.0
8.090388128425214,84354.0,272531.0
8.092890568304096,84355.0,272562.0
8.095393008182977,84388.0,272545.0
8.09789544806186,84397.0,272571.0
8.100397887940742,84403.0,272538.0
8.102900327819624,84427.0,272551.0
8.105402767698505,84426.0,272567.0
8.107905207577387,84442.0,272562.0
8.11040764745627,84450.0,272534.0
8.112910087335152,84461.0,272520.0
8.115412527214033,84442.0,272515.0
8.117914967092915,84473.0,272551.0
8.120417406971796,84475.0,272518.0
8.12291984685068,84485.0,272511.0
8.125422286729561,84486.0,272512.0
8.127924726608443,84523.0,272530.0
8.130427166487324,84524.0,272504.0
8.132929606366206,84533.0,272530.0
8.13543204624509,84528.0,272528.0
8.13793448612397,84532.0,272507.0
8.140436926002852,84582.0,272519.0
8.142939365881734,84532.0,272565.0
8.145441805760615,84569.0,272545.0
8.147944245639499,84569.0,272537.0
8.15044668551838,84606.0,272523.0
8.152949125397262,84593.0,272508.0
8.155451565276143,84593.0,272522.0
8.157954005155025,84609.0,272513.0
8.160456445033908,84609.0,272515.0
8.16295888491279,84625.0,272521.0
8.165461324791671,84641.0,272510.0
8.167963764670553,84660.0,272527.0
8.170466204549436,84676.0,272525.0
8.172968644428318,84688.0,272519.0
8.1754710843072,84672.0,272521.0
8.177973524186081,84686.0,272512.0
8.180475964064962,84702.0,272529.0
8.182978403943846,84723.0,272533.0
8.185480843822727,84709.0,272537.0
8.187983283701609,84739.0,272505.0
8.19048572358049,84724.0,272525.0
8.192988163459372,84757.0,272529.0
8.195490603338255,84730.0,272521.0
8.197993043217137,84763.0,272530.0
8.200495483096018,84756.0,272500.0
8.2029979229749,84773.0,272524.0
8.205500362853781,84772.0,272484.0
8.208002802732665,84787.0,272501.0
8.210505242611546,84783.0,272501.0
8.213007682490428,84802.0,272477.0
8.21551012236931,84780.0,272523.0
8.218012562248191,84796.0,272501.0
8.220515002127074,84775.0,272500.0
8.223017442005956,84788.0,272517.0
8.225519881884837,84785.0,272498.0
8.228022321763719,84809.0,272492.0
8.2305247616426,84783.0,272477.0
8.233027201521484,84761.0,272482.0
8.235529641400365,84728.0,272509.0
8.238032081279247,84718.0,272523.0
8.240534521158128,84721.0,272503.0
8.24303696103701,84698.0,272521.0
8.245539400915893,84680.0,272502.0
8.248041840794775,84665.0,272510.0
8.250544280673656,84625.0,272537.0
8.253046720552538,84617.0,272473.0
8.25554916043142,84591.0,272505.0
8.258051600310303,84584.0,272500.0
8.260554040189184,84542.0,272500.0
8.263056480068066,84494.0,272500.0
8.265558919946947,84482.0,272489.0
8.268061359825829,84445.0,272523.0
8.270563799704712,84411.0,272484.0
8.273066239583594,84400.0,272501.0
8.275568679462475,84336.0,272499.0
8.278071119341357,84289.0,272499.0
8.28057355922024,84277.0,272470.0
8.283075999099122,84243.0,272484.0
8.285578438978003,84199.0,272505.0
8.288080878856885,84155.0,272480.0
8.290583318735766,84150.0,272502.0
8.29308575861465,84070.0,272478.0
8.295588198493531,84061.0,272503.0
8.298090638372413,84013.0,272508.0
8.300593078251294,83986.0,272504.0
8.303095518130176,83972.0,272511.0
8.30559795800906,83928.0,272511.0
8.30810039788794,83913.0,272516.0
8.310602837766822,83897.0,272469.0
8.313105277645704,83828.0,272489.0
8.315607717524585,83786.0,272496.0
8.318110157403469,83764.0,272520.0
8.32061259728235,83739.0,272488.0
8.323115037161232,83687.0,272474.0
8.325617477040113,83692.0,272475.0
8.328119916918995,83670.0,272489.0
8.330622356797878,83627.0,272503.0
8.33312479667676,83604.0,272493.0
8.335627236555641,83565.0,272505.0
8.338129676434523,83574.0,272499.0
8.340632116313405,83551.0,272504.0
8.343134556192288,83544.0,272493.0
8.34563699607117,83512.0,272505.0
8.348139435950051,83482.0,272497.0
8.350641875828932,83475.0,272501.0
8.353144315707814,83456.0,272495.0
8.355646755586697,83433.0,272463.0
8.358149195465579,83396.0,272507.0
8.36065163534446,83378.0,272463.0
8.363154075223342,83405.0,272510.0
8.365656515102224,83382.0,272477.0
8.368158954981107,83362.0,272479.0
8.370661394859988,83369.0,272455.0
8.37316383473887,83333.0,272475.0
8.375666274617751,83320.0,272473.0
8.378168714496635,83314.0,272448.0
8.380671154375516,83316.0,272481.0
8.383173594254398,83280.0,272465.0
8.38567603413328,83299.0,272467.0
8.388178474012161,83268.0,272489.0
8.390680913891044,83240.0,272478.0
8.393183353769926,83255.0,272480.0
8.395685793648807,83227.0,272484.0
8.398188233527689,83224.0,272452.0
8.40069067340657,83221.0,272463.0
8.403193113285454,83221.0,272450.0
8.405695553164335,83198.0,272478.0
8.408197993043217,83202.0,272469.0
8.410700432922098,83217.0,272487.0
8.41320287280098,83220.0,272483.0
8.415705312679863,83199.0,272479.0
8.418207752558745,83179.0,272467.0
8.420710192437626,83187.0,272481.0
8.423212632316508,83205.0,272481.0
8.42571507219539,83190.0,272502.0
8.428217512074273,83195.0,272485.0
8.430719951953154,83197.0,272475.0
8.433222391832036,83183.0,272487.0
8.435724831710917,83204.0,272508.0
8.438227271589799,83187.0,272478.0
8.440729711468682,83189.0,272470.0
8.443232151347564,83206.0,272499.0
8.445734591226445,83213.0,272454.0
8.448237031105327,83232.0,272468.0
8.450739470984209,83240.0,272487.0
8.453241910863092,83235.0,272476.0
8.455744350741973,83245.0,272496.0
8.458246790620855,83239.0,272492.0
8.460749230499736,83229.0,272496.0
8.463251670378618,83274.0,272492.0
8.465754110257501,83262.0,272493.0
8.468256550136383,83263.0,272492.0
8.470758990015264,83277.0,272474.0
8.473261429894146,83304.0,272472.0
8.475763869773028,83301.0,272500.0
8.47826630965191,83303.0,272495.0
8.480768749530792,83301.0,272496.0
8.483271189409674,83321.0,272499.0
